EXPLAIN
TAG	EISPOT
TITLE	LABEL	35E_6	Test &Identifier
DATE	LABEL	7/13/2026	Date
TIME	LABEL	12:07:34	Time
NOTES	NOTES	6	&Notes...
	Potentiostatic EIS Data Test preformed on a 30Q battery.
	- 10 AC mV rms preformed on 7/13/26
	- 35E_6
	- Custom Battery Holder Tray. Wood Base w/ reference aligator clips connected to center of banana plug.
	- No Floating Ground
	- No Faraday Cage
PSTAT	PSTAT	REF3000-51199	Potentiostat
VDC	POTEN	0.00000E+000	T	DC &Voltage (V)
FREQINIT	QUANT	1.00000E+004	Initial Fre&q. (Hz)
FREQFINAL	QUANT	1.00000E-002	Final Fre&q. (Hz)
PTSPERDEC	QUANT	1.00000E+001	Points/&decade
VAC	QUANT	1.00000E+001	AC &Voltage (mV rms)
AREA	QUANT	2.54000E+000	&Area (cm^2)
CONDIT	TWOPARAM	F	1.50000E+001	0.00000E+000	Conditionin&g	Time(s)	E(V)
DELAY	TWOPARAM	T	1.80000E+003	0.00000E+000	Init. De&lay	Time(s)	Stab.(mV/s)
SPEED	SELECTOR	1	&Optimize for:
THD	SELECTOR	1	T&HD
DRIFTCOR	SELECTOR	1	&Drift Correction
ZGUESS	QUANT	1.00000E-001	E&stimated Z (ohms)
OCVCURVE	TABLE	718
	Pt	T	Vf	Vm	Ach	Over	Temp
	#	s	V vs. Ref.	V	V	bits	deg C
	0	2.50833	3.53023E+000	3.53023E+000	-3.81040E-004	...........	-327.56
	1	5.01667	3.53023E+000	3.52990E+000	-3.79200E-004	...........	-327.56
	2	7.525	3.53019E+000	3.52983E+000	-3.81233E-004	...........	-327.56
	3	10.0333	3.53011E+000	3.52978E+000	-3.78293E-004	...........	-327.56
	4	12.5417	3.53000E+000	3.52975E+000	-3.80827E-004	...........	-327.56
	5	15.05	3.52989E+000	3.52976E+000	-3.75947E-004	...........	-327.56
	6	17.5583	3.52981E+000	3.52974E+000	-3.80580E-004	...........	-327.56
	7	20.0667	3.52977E+000	3.52973E+000	-3.80460E-004	...........	-327.56
	8	22.575	3.52975E+000	3.52972E+000	-3.78067E-004	...........	-327.56
	9	25.0833	3.52974E+000	3.52973E+000	-3.79360E-004	...........	-327.56
	10	27.5917	3.52973E+000	3.52972E+000	-3.77480E-004	...........	-327.56
	11	30.1	3.52973E+000	3.52971E+000	-3.76793E-004	...........	-327.56
	12	32.6083	3.52972E+000	3.52971E+000	-3.78247E-004	...........	-327.56
	13	35.1167	3.52972E+000	3.52970E+000	-3.76280E-004	...........	-327.56
	14	37.625	3.52971E+000	3.52973E+000	-3.78607E-004	...........	-327.56
	15	40.1333	3.52971E+000	3.52975E+000	-3.80787E-004	...........	-327.56
	16	42.6417	3.52972E+000	3.52974E+000	-3.76260E-004	...........	-327.56
	17	45.15	3.52973E+000	3.52971E+000	-3.75627E-004	...........	-327.56
	18	47.6583	3.52973E+000	3.52970E+000	-3.74940E-004	...........	-327.56
	19	50.1667	3.52973E+000	3.52972E+000	-3.77753E-004	...........	-327.56
	20	52.675	3.52972E+000	3.52972E+000	-3.78887E-004	...........	-327.56
	21	55.1833	3.52972E+000	3.52969E+000	-3.78813E-004	...........	-327.56
	22	57.6917	3.52971E+000	3.52970E+000	-3.81213E-004	...........	-327.56
	23	60.2	3.52971E+000	3.52971E+000	-3.81580E-004	...........	-327.56
	24	62.7083	3.52971E+000	3.52971E+000	-3.80653E-004	...........	-327.56
	25	65.2167	3.52971E+000	3.52970E+000	-3.77367E-004	...........	-327.56
	26	67.725	3.52971E+000	3.52970E+000	-3.80753E-004	...........	-327.56
	27	70.2333	3.52971E+000	3.52971E+000	-3.86180E-004	...........	-327.56
	28	72.7417	3.52971E+000	3.52971E+000	-3.85400E-004	...........	-327.56
	29	75.25	3.52970E+000	3.52970E+000	-3.82667E-004	...........	-327.56
	30	77.7583	3.52970E+000	3.52969E+000	-3.80667E-004	...........	-327.56
	31	80.2667	3.52970E+000	3.52971E+000	-3.79787E-004	...........	-327.56
	32	82.775	3.52970E+000	3.52970E+000	-3.83147E-004	...........	-327.56
	33	85.2833	3.52970E+000	3.52971E+000	-3.80613E-004	...........	-327.56
	34	87.7917	3.52970E+000	3.52971E+000	-3.80133E-004	...........	-327.56
	35	90.3	3.52970E+000	3.52970E+000	-3.78567E-004	...........	-327.56
	36	92.8083	3.52970E+000	3.52970E+000	-3.75140E-004	...........	-327.56
	37	95.317	3.52971E+000	3.52970E+000	-3.75747E-004	...........	-327.56
	38	97.825	3.52970E+000	3.52971E+000	-3.78180E-004	...........	-327.56
	39	100.333	3.52970E+000	3.52970E+000	-3.74627E-004	...........	-327.56
	40	102.842	3.52970E+000	3.52969E+000	-3.73013E-004	...........	-327.56
	41	105.35	3.52970E+000	3.52970E+000	-3.80167E-004	...........	-327.56
	42	107.858	3.52970E+000	3.52971E+000	-3.75247E-004	...........	-327.56
	43	110.367	3.52970E+000	3.52969E+000	-3.76067E-004	...........	-327.56
	44	112.875	3.52970E+000	3.52970E+000	-3.77013E-004	...........	-327.56
	45	115.383	3.52970E+000	3.52970E+000	-3.78413E-004	...........	-327.56
	46	117.892	3.52970E+000	3.52970E+000	-3.80100E-004	...........	-327.56
	47	120.4	3.52970E+000	3.52970E+000	-3.78087E-004	...........	-327.56
	48	122.908	3.52970E+000	3.52970E+000	-3.78373E-004	...........	-327.56
	49	125.417	3.52970E+000	3.52969E+000	-3.76513E-004	...........	-327.56
	50	127.925	3.52970E+000	3.52969E+000	-3.79580E-004	...........	-327.56
	51	130.433	3.52970E+000	3.52969E+000	-3.80033E-004	...........	-327.56
	52	132.942	3.52969E+000	3.52970E+000	-3.77287E-004	...........	-327.56
	53	135.45	3.52969E+000	3.52969E+000	-3.78233E-004	...........	-327.56
	54	137.958	3.52969E+000	3.52970E+000	-3.74373E-004	...........	-327.56
	55	140.467	3.52970E+000	3.52970E+000	-3.76653E-004	...........	-327.56
	56	142.975	3.52970E+000	3.52970E+000	-3.83427E-004	...........	-327.56
	57	145.483	3.52970E+000	3.52970E+000	-3.79287E-004	...........	-327.56
	58	147.992	3.52970E+000	3.52971E+000	-3.78933E-004	...........	-327.56
	59	150.5	3.52970E+000	3.52970E+000	-3.77700E-004	...........	-327.56
	60	153.008	3.52970E+000	3.52970E+000	-3.80273E-004	...........	-327.56
	61	155.517	3.52970E+000	3.52969E+000	-3.81173E-004	...........	-327.56
	62	158.025	3.52970E+000	3.52970E+000	-3.84253E-004	...........	-327.56
	63	160.533	3.52970E+000	3.52971E+000	-3.79493E-004	...........	-327.56
	64	163.042	3.52970E+000	3.52970E+000	-3.82467E-004	...........	-327.56
	65	165.55	3.52970E+000	3.52970E+000	-3.84173E-004	...........	-327.56
	66	168.058	3.52970E+000	3.52970E+000	-3.82740E-004	...........	-327.56
	67	170.567	3.52970E+000	3.52971E+000	-3.89867E-004	...........	-327.56
	68	173.075	3.52970E+000	3.52971E+000	-3.85687E-004	...........	-327.56
	69	175.583	3.52970E+000	3.52969E+000	-3.87093E-004	...........	-327.56
	70	178.092	3.52970E+000	3.52970E+000	-3.85420E-004	...........	-327.56
	71	180.6	3.52970E+000	3.52970E+000	-3.87287E-004	...........	-327.56
	72	183.108	3.52970E+000	3.52970E+000	-3.85613E-004	...........	-327.56
	73	185.617	3.52970E+000	3.52969E+000	-3.85853E-004	...........	-327.56
	74	188.125	3.52970E+000	3.52969E+000	-3.86573E-004	...........	-327.56
	75	190.633	3.52970E+000	3.52969E+000	-3.82380E-004	...........	-327.56
	76	193.142	3.52970E+000	3.52970E+000	-3.85827E-004	...........	-327.56
	77	195.65	3.52969E+000	3.52969E+000	-3.89293E-004	...........	-327.56
	78	198.158	3.52969E+000	3.52969E+000	-3.86887E-004	...........	-327.56
	79	200.667	3.52969E+000	3.52970E+000	-3.86080E-004	...........	-327.56
	80	203.175	3.52969E+000	3.52970E+000	-3.87073E-004	...........	-327.56
	81	205.683	3.52969E+000	3.52970E+000	-3.82000E-004	...........	-327.56
	82	208.192	3.52970E+000	3.52968E+000	-3.83213E-004	...........	-327.56
	83	210.7	3.52970E+000	3.52970E+000	-3.83367E-004	...........	-327.56
	84	213.208	3.52970E+000	3.52969E+000	-3.81967E-004	...........	-327.56
	85	215.717	3.52969E+000	3.52969E+000	-3.81500E-004	...........	-327.56
	86	218.225	3.52969E+000	3.52970E+000	-3.77233E-004	...........	-327.56
	87	220.733	3.52969E+000	3.52970E+000	-3.80280E-004	...........	-327.56
	88	223.242	3.52969E+000	3.52970E+000	-3.82000E-004	...........	-327.56
	89	225.75	3.52969E+000	3.52969E+000	-3.83733E-004	...........	-327.56
	90	228.258	3.52970E+000	3.52970E+000	-3.82807E-004	...........	-327.56
	91	230.767	3.52970E+000	3.52969E+000	-3.85627E-004	...........	-327.56
	92	233.275	3.52969E+000	3.52969E+000	-3.82087E-004	...........	-327.56
	93	235.783	3.52969E+000	3.52969E+000	-3.79760E-004	...........	-327.56
	94	238.292	3.52969E+000	3.52971E+000	-3.78327E-004	...........	-327.56
	95	240.8	3.52969E+000	3.52969E+000	-3.84707E-004	...........	-327.56
	96	243.308	3.52969E+000	3.52970E+000	-3.77707E-004	...........	-327.56
	97	245.817	3.52970E+000	3.52970E+000	-3.79393E-004	...........	-327.56
	98	248.325	3.52970E+000	3.52969E+000	-3.80480E-004	...........	-327.56
	99	250.833	3.52970E+000	3.52969E+000	-3.78607E-004	...........	-327.56
	100	253.342	3.52970E+000	3.52969E+000	-3.81033E-004	...........	-327.56
	101	255.85	3.52970E+000	3.52970E+000	-3.85960E-004	...........	-327.56
	102	258.358	3.52969E+000	3.52970E+000	-3.77567E-004	...........	-327.56
	103	260.867	3.52969E+000	3.52970E+000	-3.78767E-004	...........	-327.56
	104	263.375	3.52970E+000	3.52970E+000	-3.79380E-004	...........	-327.56
	105	265.883	3.52970E+000	3.52970E+000	-3.79907E-004	...........	-327.56
	106	268.392	3.52970E+000	3.52970E+000	-3.85093E-004	...........	-327.56
	107	270.9	3.52970E+000	3.52969E+000	-3.84807E-004	...........	-327.56
	108	273.408	3.52970E+000	3.52970E+000	-3.79200E-004	...........	-327.56
	109	275.917	3.52970E+000	3.52970E+000	-3.78073E-004	...........	-327.56
	110	278.425	3.52970E+000	3.52969E+000	-3.80420E-004	...........	-327.56
	111	280.933	3.52970E+000	3.52969E+000	-3.79107E-004	...........	-327.56
	112	283.442	3.52970E+000	3.52969E+000	-3.81047E-004	...........	-327.56
	113	285.95	3.52969E+000	3.52970E+000	-3.79293E-004	...........	-327.56
	114	288.458	3.52969E+000	3.52969E+000	-3.81573E-004	...........	-327.56
	115	290.967	3.52969E+000	3.52969E+000	-3.76380E-004	...........	-327.56
	116	293.475	3.52969E+000	3.52969E+000	-3.79580E-004	...........	-327.56
	117	295.983	3.52969E+000	3.52969E+000	-3.82347E-004	...........	-327.56
	118	298.492	3.52969E+000	3.52969E+000	-3.79040E-004	...........	-327.56
	119	301	3.52969E+000	3.52970E+000	-3.76820E-004	...........	-327.56
	120	303.508	3.52969E+000	3.52970E+000	-3.79840E-004	...........	-327.56
	121	306.017	3.52970E+000	3.52969E+000	-3.79040E-004	...........	-327.56
	122	308.525	3.52970E+000	3.52969E+000	-3.77587E-004	...........	-327.56
	123	311.033	3.52970E+000	3.52969E+000	-3.79340E-004	...........	-327.56
	124	313.542	3.52969E+000	3.52969E+000	-3.78920E-004	...........	-327.56
	125	316.05	3.52969E+000	3.52970E+000	-3.79980E-004	...........	-327.56
	126	318.558	3.52969E+000	3.52970E+000	-3.83380E-004	...........	-327.56
	127	321.067	3.52969E+000	3.52968E+000	-3.83513E-004	...........	-327.56
	128	323.575	3.52969E+000	3.52969E+000	-3.80940E-004	...........	-327.56
	129	326.083	3.52969E+000	3.52969E+000	-3.84087E-004	...........	-327.56
	130	328.592	3.52969E+000	3.52969E+000	-3.75787E-004	...........	-327.56
	131	331.1	3.52969E+000	3.52970E+000	-3.74213E-004	...........	-327.56
	132	333.608	3.52969E+000	3.52968E+000	-3.75567E-004	...........	-327.56
	133	336.117	3.52969E+000	3.52969E+000	-3.73787E-004	...........	-327.56
	134	338.625	3.52969E+000	3.52968E+000	-3.77953E-004	...........	-327.56
	135	341.133	3.52969E+000	3.52969E+000	-3.73847E-004	...........	-327.56
	136	343.642	3.52969E+000	3.52970E+000	-3.77927E-004	...........	-327.56
	137	346.15	3.52969E+000	3.52969E+000	-3.79800E-004	...........	-327.56
	138	348.658	3.52969E+000	3.52968E+000	-3.78093E-004	...........	-327.56
	139	351.167	3.52969E+000	3.52968E+000	-3.80560E-004	...........	-327.56
	140	353.675	3.52969E+000	3.52968E+000	-3.80887E-004	...........	-327.56
	141	356.183	3.52969E+000	3.52969E+000	-3.79993E-004	...........	-327.56
	142	358.692	3.52968E+000	3.52968E+000	-3.75947E-004	...........	-327.56
	143	361.2	3.52968E+000	3.52970E+000	-3.79993E-004	...........	-327.56
	144	363.708	3.52969E+000	3.52968E+000	-3.73820E-004	...........	-327.56
	145	366.217	3.52969E+000	3.52969E+000	-3.79267E-004	...........	-327.56
	146	368.725	3.52969E+000	3.52969E+000	-3.75560E-004	...........	-327.56
	147	371.233	3.52969E+000	3.52970E+000	-3.74160E-004	...........	-327.56
	148	373.742	3.52969E+000	3.52969E+000	-3.77740E-004	...........	-327.56
	149	376.25	3.52969E+000	3.52969E+000	-3.75140E-004	...........	-327.56
	150	378.758	3.52969E+000	3.52970E+000	-3.82640E-004	...........	-327.56
	151	381.267	3.52969E+000	3.52969E+000	-3.80460E-004	...........	-327.56
	152	383.775	3.52969E+000	3.52969E+000	-3.76680E-004	...........	-327.56
	153	386.283	3.52969E+000	3.52969E+000	-3.76227E-004	...........	-327.56
	154	388.792	3.52969E+000	3.52969E+000	-3.75373E-004	...........	-327.56
	155	391.3	3.52969E+000	3.52969E+000	-3.78000E-004	...........	-327.56
	156	393.808	3.52969E+000	3.52969E+000	-3.76933E-004	...........	-327.56
	157	396.317	3.52969E+000	3.52969E+000	-3.78440E-004	...........	-327.56
	158	398.825	3.52969E+000	3.52969E+000	-3.76487E-004	...........	-327.56
	159	401.333	3.52969E+000	3.52969E+000	-3.77693E-004	...........	-327.56
	160	403.842	3.52969E+000	3.52969E+000	-3.82007E-004	...........	-327.56
	161	406.35	3.52969E+000	3.52968E+000	-3.80887E-004	...........	-327.56
	162	408.858	3.52969E+000	3.52969E+000	-3.83633E-004	...........	-327.56
	163	411.367	3.52969E+000	3.52968E+000	-3.84460E-004	...........	-327.56
	164	413.875	3.52969E+000	3.52968E+000	-3.83213E-004	...........	-327.56
	165	416.383	3.52969E+000	3.52970E+000	-3.83587E-004	...........	-327.56
	166	418.892	3.52969E+000	3.52969E+000	-3.83153E-004	...........	-327.56
	167	421.4	3.52969E+000	3.52969E+000	-3.82500E-004	...........	-327.56
	168	423.908	3.52969E+000	3.52969E+000	-3.81967E-004	...........	-327.56
	169	426.417	3.52969E+000	3.52969E+000	-3.83067E-004	...........	-327.56
	170	428.925	3.52969E+000	3.52970E+000	-3.82007E-004	...........	-327.56
	171	431.433	3.52969E+000	3.52968E+000	-3.81060E-004	...........	-327.56
	172	433.942	3.52969E+000	3.52968E+000	-3.81607E-004	...........	-327.56
	173	436.45	3.52969E+000	3.52968E+000	-3.84107E-004	...........	-327.56
	174	438.958	3.52969E+000	3.52968E+000	-3.85427E-004	...........	-327.56
	175	441.467	3.52968E+000	3.52969E+000	-3.79240E-004	...........	-327.56
	176	443.975	3.52968E+000	3.52968E+000	-3.79780E-004	...........	-327.56
	177	446.483	3.52968E+000	3.52968E+000	-3.80487E-004	...........	-327.56
	178	448.992	3.52968E+000	3.52968E+000	-3.83953E-004	...........	-327.56
	179	451.5	3.52968E+000	3.52969E+000	-3.82827E-004	...........	-327.56
	180	454.008	3.52968E+000	3.52970E+000	-3.81613E-004	...........	-327.56
	181	456.517	3.52968E+000	3.52969E+000	-3.75320E-004	...........	-327.56
	182	459.025	3.52969E+000	3.52969E+000	-3.80740E-004	...........	-327.56
	183	461.533	3.52969E+000	3.52969E+000	-3.83720E-004	...........	-327.56
	184	464.042	3.52969E+000	3.52969E+000	-3.85493E-004	...........	-327.56
	185	466.55	3.52969E+000	3.52968E+000	-3.81940E-004	...........	-327.56
	186	469.058	3.52969E+000	3.52969E+000	-3.80013E-004	...........	-327.56
	187	471.567	3.52969E+000	3.52969E+000	-3.79380E-004	...........	-327.56
	188	474.075	3.52969E+000	3.52967E+000	-3.78300E-004	...........	-327.56
	189	476.583	3.52969E+000	3.52969E+000	-3.80287E-004	...........	-327.56
	190	479.092	3.52969E+000	3.52968E+000	-3.81720E-004	...........	-327.56
	191	481.6	3.52969E+000	3.52968E+000	-3.80967E-004	...........	-327.56
	192	484.108	3.52968E+000	3.52967E+000	-3.83067E-004	...........	-327.56
	193	486.617	3.52968E+000	3.52971E+000	-3.82907E-004	...........	-327.56
	194	489.125	3.52968E+000	3.52971E+000	-3.81513E-004	...........	-327.56
	195	491.633	3.52969E+000	3.52971E+000	-3.82993E-004	...........	-327.56
	196	494.142	3.52970E+000	3.52970E+000	-3.80753E-004	...........	-327.56
	197	496.65	3.52970E+000	3.52971E+000	-3.79367E-004	...........	-327.56
	198	499.158	3.52971E+000	3.52972E+000	-3.85180E-004	...........	-327.56
	199	501.667	3.52971E+000	3.52972E+000	-3.87373E-004	...........	-327.56
	200	504.175	3.52971E+000	3.52970E+000	-3.79947E-004	...........	-327.56
	201	506.683	3.52971E+000	3.52971E+000	-3.83267E-004	...........	-327.56
	202	509.192	3.52971E+000	3.52968E+000	-3.80840E-004	...........	-327.56
	203	511.7	3.52971E+000	3.52971E+000	-3.83593E-004	...........	-327.56
	204	514.208	3.52970E+000	3.52968E+000	-3.85873E-004	...........	-327.56
	205	516.717	3.52970E+000	3.52969E+000	-3.90513E-004	...........	-327.56
	206	519.225	3.52969E+000	3.52969E+000	-3.88620E-004	...........	-327.56
	207	521.733	3.52969E+000	3.52968E+000	-3.82860E-004	...........	-327.56
	208	524.242	3.52969E+000	3.52967E+000	-3.84493E-004	...........	-327.56
	209	526.75	3.52969E+000	3.52968E+000	-3.81993E-004	...........	-327.56
	210	529.258	3.52968E+000	3.52968E+000	-3.84687E-004	...........	-327.56
	211	531.767	3.52968E+000	3.52969E+000	-3.85707E-004	...........	-327.56
	212	534.275	3.52968E+000	3.52968E+000	-3.81940E-004	...........	-327.56
	213	536.783	3.52968E+000	3.52970E+000	-3.83787E-004	...........	-327.56
	214	539.292	3.52969E+000	3.52970E+000	-3.87427E-004	...........	-327.56
	215	541.8	3.52969E+000	3.52968E+000	-3.87167E-004	...........	-327.56
	216	544.308	3.52969E+000	3.52969E+000	-3.86067E-004	...........	-327.56
	217	546.817	3.52969E+000	3.52970E+000	-3.90353E-004	...........	-327.56
	218	549.325	3.52969E+000	3.52968E+000	-3.83787E-004	...........	-327.56
	219	551.833	3.52969E+000	3.52970E+000	-3.79740E-004	...........	-327.56
	220	554.342	3.52969E+000	3.52968E+000	-3.80227E-004	...........	-327.56
	221	556.85	3.52969E+000	3.52968E+000	-3.80740E-004	...........	-327.56
	222	559.358	3.52969E+000	3.52969E+000	-3.81387E-004	...........	-327.56
	223	561.867	3.52969E+000	3.52968E+000	-3.84847E-004	...........	-327.56
	224	564.375	3.52969E+000	3.52970E+000	-3.82107E-004	...........	-327.56
	225	566.883	3.52969E+000	3.52969E+000	-3.82327E-004	...........	-327.56
	226	569.392	3.52969E+000	3.52968E+000	-3.85620E-004	...........	-327.56
	227	571.9	3.52969E+000	3.52968E+000	-3.88007E-004	...........	-327.56
	228	574.408	3.52969E+000	3.52968E+000	-3.83980E-004	...........	-327.56
	229	576.917	3.52969E+000	3.52969E+000	-3.82527E-004	...........	-327.56
	230	579.425	3.52968E+000	3.52969E+000	-3.82987E-004	...........	-327.56
	231	581.933	3.52968E+000	3.52968E+000	-3.85033E-004	...........	-327.56
	232	584.442	3.52968E+000	3.52969E+000	-3.87407E-004	...........	-327.56
	233	586.95	3.52969E+000	3.52968E+000	-3.84273E-004	...........	-327.56
	234	589.458	3.52969E+000	3.52969E+000	-3.83953E-004	...........	-327.56
	235	591.967	3.52969E+000	3.52969E+000	-3.82540E-004	...........	-327.56
	236	594.475	3.52969E+000	3.52969E+000	-3.87053E-004	...........	-327.56
	237	596.983	3.52969E+000	3.52970E+000	-3.86967E-004	...........	-327.56
	238	599.492	3.52969E+000	3.52968E+000	-3.84727E-004	...........	-327.56
	239	602	3.52969E+000	3.52968E+000	-3.86333E-004	...........	-327.56
	240	604.508	3.52969E+000	3.52969E+000	-3.86953E-004	...........	-327.56
	241	607.017	3.52969E+000	3.52968E+000	-3.88247E-004	...........	-327.56
	242	609.525	3.52969E+000	3.52968E+000	-3.86213E-004	...........	-327.56
	243	612.033	3.52969E+000	3.52969E+000	-3.83447E-004	...........	-327.56
	244	614.542	3.52969E+000	3.52969E+000	-3.86560E-004	...........	-327.56
	245	617.05	3.52969E+000	3.52968E+000	-3.84980E-004	...........	-327.56
	246	619.558	3.52969E+000	3.52969E+000	-3.83827E-004	...........	-327.56
	247	622.067	3.52968E+000	3.52969E+000	-3.86007E-004	...........	-327.56
	248	624.575	3.52968E+000	3.52970E+000	-3.88980E-004	...........	-327.56
	249	627.083	3.52969E+000	3.52969E+000	-3.84580E-004	...........	-327.56
	250	629.592	3.52969E+000	3.52967E+000	-3.82640E-004	...........	-327.56
	251	632.1	3.52969E+000	3.52969E+000	-3.85433E-004	...........	-327.56
	252	634.608	3.52969E+000	3.52970E+000	-3.84747E-004	...........	-327.56
	253	637.117	3.52969E+000	3.52969E+000	-3.83013E-004	...........	-327.56
	254	639.625	3.52969E+000	3.52969E+000	-3.87393E-004	...........	-327.56
	255	642.133	3.52969E+000	3.52969E+000	-3.81587E-004	...........	-327.56
	256	644.642	3.52969E+000	3.52968E+000	-3.83127E-004	...........	-327.56
	257	647.15	3.52969E+000	3.52968E+000	-3.86580E-004	...........	-327.56
	258	649.658	3.52968E+000	3.52969E+000	-3.90907E-004	...........	-327.56
	259	652.167	3.52968E+000	3.52970E+000	-3.88787E-004	...........	-327.56
	260	654.675	3.52968E+000	3.52969E+000	-3.88140E-004	...........	-327.56
	261	657.183	3.52969E+000	3.52969E+000	-3.85947E-004	...........	-327.56
	262	659.692	3.52969E+000	3.52969E+000	-3.87193E-004	...........	-327.56
	263	662.2	3.52969E+000	3.52968E+000	-3.87947E-004	...........	-327.56
	264	664.708	3.52969E+000	3.52969E+000	-3.90247E-004	...........	-327.56
	265	667.217	3.52969E+000	3.52969E+000	-3.90300E-004	...........	-327.56
	266	669.725	3.52969E+000	3.52970E+000	-3.90373E-004	...........	-327.56
	267	672.233	3.52969E+000	3.52969E+000	-3.86267E-004	...........	-327.56
	268	674.742	3.52969E+000	3.52970E+000	-3.83040E-004	...........	-327.56
	269	677.25	3.52969E+000	3.52969E+000	-3.84393E-004	...........	-327.56
	270	679.758	3.52969E+000	3.52968E+000	-3.88600E-004	...........	-327.56
	271	682.267	3.52969E+000	3.52969E+000	-3.86380E-004	...........	-327.56
	272	684.775	3.52969E+000	3.52969E+000	-3.89047E-004	...........	-327.56
	273	687.283	3.52969E+000	3.52968E+000	-3.85220E-004	...........	-327.56
	274	689.792	3.52969E+000	3.52968E+000	-3.88773E-004	...........	-327.56
	275	692.3	3.52969E+000	3.52969E+000	-3.89247E-004	...........	-327.56
	276	694.808	3.52968E+000	3.52968E+000	-3.88833E-004	...........	-327.56
	277	697.317	3.52968E+000	3.52968E+000	-3.87993E-004	...........	-327.56
	278	699.825	3.52968E+000	3.52969E+000	-3.87687E-004	...........	-327.56
	279	702.333	3.52968E+000	3.52969E+000	-3.82967E-004	...........	-327.56
	280	704.842	3.52968E+000	3.52968E+000	-3.85073E-004	...........	-327.56
	281	707.35	3.52969E+000	3.52969E+000	-3.87567E-004	...........	-327.56
	282	709.858	3.52969E+000	3.52967E+000	-3.85820E-004	...........	-327.56
	283	712.367	3.52969E+000	3.52969E+000	-3.85927E-004	...........	-327.56
	284	714.875	3.52968E+000	3.52969E+000	-3.93073E-004	...........	-327.56
	285	717.383	3.52968E+000	3.52968E+000	-3.90207E-004	...........	-327.56
	286	719.892	3.52968E+000	3.52970E+000	-3.87133E-004	...........	-327.56
	287	722.4	3.52968E+000	3.52969E+000	-3.87727E-004	...........	-327.56
	288	724.908	3.52969E+000	3.52969E+000	-3.89813E-004	...........	-327.56
	289	727.417	3.52969E+000	3.52968E+000	-3.85000E-004	...........	-327.56
	290	729.925	3.52969E+000	3.52970E+000	-3.87080E-004	...........	-327.56
	291	732.433	3.52969E+000	3.52968E+000	-3.88660E-004	...........	-327.56
	292	734.942	3.52969E+000	3.52970E+000	-3.84727E-004	...........	-327.56
	293	737.45	3.52969E+000	3.52969E+000	-3.82533E-004	...........	-327.56
	294	739.958	3.52969E+000	3.52971E+000	-3.85020E-004	...........	-327.56
	295	742.467	3.52969E+000	3.52969E+000	-3.86200E-004	...........	-327.56
	296	744.975	3.52970E+000	3.52970E+000	-3.88327E-004	...........	-327.56
	297	747.483	3.52970E+000	3.52967E+000	-3.89487E-004	...........	-327.56
	298	749.992	3.52970E+000	3.52968E+000	-3.91593E-004	...........	-327.56
	299	752.5	3.52969E+000	3.52969E+000	-3.87380E-004	...........	-327.56
	300	755.008	3.52969E+000	3.52969E+000	-3.89173E-004	...........	-327.56
	301	757.517	3.52969E+000	3.52969E+000	-3.88040E-004	...........	-327.56
	302	760.025	3.52969E+000	3.52969E+000	-3.85927E-004	...........	-327.56
	303	762.533	3.52969E+000	3.52969E+000	-3.86380E-004	...........	-327.56
	304	765.042	3.52969E+000	3.52970E+000	-3.85100E-004	...........	-327.56
	305	767.55	3.52969E+000	3.52969E+000	-3.84373E-004	...........	-327.56
	306	770.058	3.52969E+000	3.52970E+000	-3.84940E-004	...........	-327.56
	307	772.567	3.52969E+000	3.52969E+000	-3.80780E-004	...........	-327.56
	308	775.075	3.52969E+000	3.52969E+000	-3.85820E-004	...........	-327.56
	309	777.583	3.52969E+000	3.52970E+000	-3.88407E-004	...........	-327.56
	310	780.092	3.52969E+000	3.52969E+000	-3.84867E-004	...........	-327.56
	311	782.6	3.52969E+000	3.52970E+000	-3.83427E-004	...........	-327.56
	312	785.108	3.52969E+000	3.52969E+000	-3.83747E-004	...........	-327.56
	313	787.617	3.52969E+000	3.52968E+000	-3.83167E-004	...........	-327.56
	314	790.125	3.52969E+000	3.52969E+000	-3.83307E-004	...........	-327.56
	315	792.633	3.52969E+000	3.52970E+000	-3.85093E-004	...........	-327.56
	316	795.142	3.52969E+000	3.52970E+000	-3.88113E-004	...........	-327.56
	317	797.65	3.52969E+000	3.52968E+000	-3.84587E-004	...........	-327.56
	318	800.158	3.52969E+000	3.52969E+000	-3.89300E-004	...........	-327.56
	319	802.667	3.52969E+000	3.52969E+000	-3.84773E-004	...........	-327.56
	320	805.175	3.52969E+000	3.52969E+000	-3.94787E-004	...........	-327.56
	321	807.683	3.52969E+000	3.52970E+000	-3.87820E-004	...........	-327.56
	322	810.192	3.52969E+000	3.52969E+000	-3.86367E-004	...........	-327.56
	323	812.7	3.52969E+000	3.52970E+000	-3.85900E-004	...........	-327.56
	324	815.208	3.52969E+000	3.52970E+000	-3.89060E-004	...........	-327.56
	325	817.717	3.52969E+000	3.52969E+000	-3.84133E-004	...........	-327.56
	326	820.225	3.52969E+000	3.52969E+000	-3.87200E-004	...........	-327.56
	327	822.733	3.52969E+000	3.52969E+000	-3.93513E-004	...........	-327.56
	328	825.242	3.52969E+000	3.52968E+000	-3.86853E-004	...........	-327.56
	329	827.75	3.52969E+000	3.52969E+000	-3.85407E-004	...........	-327.56
	330	830.258	3.52969E+000	3.52969E+000	-3.82873E-004	...........	-327.56
	331	832.767	3.52969E+000	3.52969E+000	-3.88120E-004	...........	-327.56
	332	835.275	3.52969E+000	3.52970E+000	-3.87973E-004	...........	-327.56
	333	837.783	3.52969E+000	3.52970E+000	-3.88073E-004	...........	-327.56
	334	840.292	3.52970E+000	3.52969E+000	-3.84887E-004	...........	-327.56
	335	842.8	3.52970E+000	3.52969E+000	-3.86007E-004	...........	-327.56
	336	845.308	3.52970E+000	3.52969E+000	-3.85920E-004	...........	-327.56
	337	847.817	3.52970E+000	3.52972E+000	-3.82867E-004	...........	-327.56
	338	850.325	3.52970E+000	3.52972E+000	-3.83040E-004	...........	-327.56
	339	852.833	3.52970E+000	3.52971E+000	-3.86140E-004	...........	-327.56
	340	855.342	3.52971E+000	3.52972E+000	-3.84433E-004	...........	-327.56
	341	857.85	3.52971E+000	3.52973E+000	-3.81993E-004	...........	-327.56
	342	860.358	3.52972E+000	3.52973E+000	-3.81447E-004	...........	-327.56
	343	862.867	3.52972E+000	3.52970E+000	-3.81613E-004	...........	-327.56
	344	865.375	3.52972E+000	3.52971E+000	-3.76800E-004	...........	-327.56
	345	867.883	3.52972E+000	3.52972E+000	-3.80940E-004	...........	-327.56
	346	870.392	3.52972E+000	3.52971E+000	-3.83413E-004	...........	-327.56
	347	872.9	3.52971E+000	3.52972E+000	-3.83253E-004	...........	-327.56
	348	875.408	3.52971E+000	3.52972E+000	-3.89520E-004	...........	-327.56
	349	877.917	3.52972E+000	3.52971E+000	-3.86920E-004	...........	-327.56
	350	880.425	3.52972E+000	3.52972E+000	-3.89627E-004	...........	-327.56
	351	882.933	3.52972E+000	3.52973E+000	-3.85593E-004	...........	-327.56
	352	885.442	3.52972E+000	3.52973E+000	-3.89240E-004	...........	-327.56
	353	887.95	3.52972E+000	3.52972E+000	-3.88900E-004	...........	-327.56
	354	890.458	3.52972E+000	3.52973E+000	-3.86120E-004	...........	-327.56
	355	892.967	3.52972E+000	3.52971E+000	-3.83353E-004	...........	-327.56
	356	895.475	3.52972E+000	3.52970E+000	-3.86473E-004	...........	-327.56
	357	897.983	3.52972E+000	3.52971E+000	-3.92473E-004	...........	-327.56
	358	900.492	3.52971E+000	3.52970E+000	-3.92020E-004	...........	-327.56
	359	903	3.52971E+000	3.52969E+000	-3.89087E-004	...........	-327.56
	360	905.508	3.52970E+000	3.52970E+000	-3.91220E-004	...........	-327.56
	361	908.017	3.52970E+000	3.52969E+000	-3.81900E-004	...........	-327.56
	362	910.525	3.52970E+000	3.52969E+000	-3.80553E-004	...........	-327.56
	363	913.033	3.52970E+000	3.52968E+000	-3.84747E-004	...........	-327.56
	364	915.542	3.52969E+000	3.52970E+000	-3.82380E-004	...........	-327.56
	365	918.05	3.52969E+000	3.52971E+000	-3.81553E-004	...........	-327.56
	366	920.558	3.52969E+000	3.52969E+000	-3.87233E-004	...........	-327.56
	367	923.067	3.52969E+000	3.52969E+000	-3.84720E-004	...........	-327.56
	368	925.575	3.52970E+000	3.52970E+000	-3.81740E-004	...........	-327.56
	369	928.083	3.52970E+000	3.52969E+000	-3.76713E-004	...........	-327.56
	370	930.592	3.52970E+000	3.52969E+000	-3.82120E-004	...........	-327.56
	371	933.1	3.52970E+000	3.52970E+000	-3.80560E-004	...........	-327.56
	372	935.608	3.52970E+000	3.52970E+000	-3.82987E-004	...........	-327.56
	373	938.117	3.52970E+000	3.52968E+000	-3.80000E-004	...........	-327.56
	374	940.625	3.52970E+000	3.52969E+000	-3.83693E-004	...........	-327.56
	375	943.133	3.52969E+000	3.52969E+000	-3.80913E-004	...........	-327.56
	376	945.642	3.52969E+000	3.52970E+000	-3.85413E-004	...........	-327.56
	377	948.15	3.52969E+000	3.52970E+000	-3.87933E-004	...........	-327.56
	378	950.66	3.52969E+000	3.52970E+000	-3.80127E-004	...........	-327.56
	379	953.17	3.52969E+000	3.52969E+000	-3.76647E-004	...........	-327.56
	380	955.68	3.52970E+000	3.52969E+000	-3.82393E-004	...........	-327.56
	381	958.18	3.52969E+000	3.52969E+000	-3.81567E-004	...........	-327.56
	382	960.69	3.52969E+000	3.52969E+000	-3.78067E-004	...........	-327.56
	383	963.2	3.52969E+000	3.52969E+000	-3.80813E-004	...........	-327.56
	384	965.71	3.52969E+000	3.52972E+000	-3.81073E-004	...........	-327.56
	385	968.22	3.52969E+000	3.52972E+000	-3.80667E-004	...........	-327.56
	386	970.73	3.52970E+000	3.52972E+000	-3.85480E-004	...........	-327.56
	387	973.23	3.52971E+000	3.52973E+000	-3.82193E-004	...........	-327.56
	388	975.74	3.52972E+000	3.52972E+000	-3.82887E-004	...........	-327.56
	389	978.25	3.52972E+000	3.52972E+000	-3.80727E-004	...........	-327.56
	390	980.76	3.52972E+000	3.52972E+000	-3.79753E-004	...........	-327.56
	391	983.27	3.52972E+000	3.52973E+000	-3.82087E-004	...........	-327.56
	392	985.78	3.52972E+000	3.52970E+000	-3.83567E-004	...........	-327.56
	393	988.28	3.52972E+000	3.52970E+000	-3.78900E-004	...........	-327.56
	394	990.79	3.52972E+000	3.52969E+000	-3.79247E-004	...........	-327.56
	395	993.3	3.52971E+000	3.52969E+000	-3.84220E-004	...........	-327.56
	396	995.81	3.52970E+000	3.52970E+000	-3.79007E-004	...........	-327.56
	397	998.32	3.52969E+000	3.52970E+000	-3.83853E-004	...........	-327.56
	398	1000.83	3.52969E+000	3.52969E+000	-3.85267E-004	...........	-327.56
	399	1003.33	3.52969E+000	3.52969E+000	-3.82927E-004	...........	-327.56
	400	1005.84	3.52969E+000	3.52969E+000	-3.81907E-004	...........	-327.56
	401	1008.35	3.52969E+000	3.52969E+000	-3.80040E-004	...........	-327.56
	402	1010.86	3.52969E+000	3.52971E+000	-3.83013E-004	...........	-327.56
	403	1013.37	3.52969E+000	3.52970E+000	-3.77807E-004	...........	-327.56
	404	1015.88	3.52970E+000	3.52970E+000	-3.81133E-004	...........	-327.56
	405	1018.38	3.52970E+000	3.52970E+000	-3.82033E-004	...........	-327.56
	406	1020.89	3.52970E+000	3.52970E+000	-3.83353E-004	...........	-327.56
	407	1023.4	3.52970E+000	3.52969E+000	-3.85947E-004	...........	-327.56
	408	1025.91	3.52970E+000	3.52970E+000	-3.82253E-004	...........	-327.56
	409	1028.42	3.52970E+000	3.52970E+000	-3.82153E-004	...........	-327.56
	410	1030.93	3.52970E+000	3.52971E+000	-3.80367E-004	...........	-327.56
	411	1033.43	3.52970E+000	3.52969E+000	-3.81273E-004	...........	-327.56
	412	1035.94	3.52970E+000	3.52970E+000	-3.82867E-004	...........	-327.56
	413	1038.45	3.52970E+000	3.52970E+000	-3.80753E-004	...........	-327.56
	414	1040.96	3.52970E+000	3.52970E+000	-3.82233E-004	...........	-327.56
	415	1043.47	3.52970E+000	3.52971E+000	-3.79487E-004	...........	-327.56
	416	1045.98	3.52970E+000	3.52970E+000	-3.78487E-004	...........	-327.56
	417	1048.48	3.52970E+000	3.52971E+000	-3.81440E-004	...........	-327.56
	418	1050.99	3.52970E+000	3.52969E+000	-3.77853E-004	...........	-327.56
	419	1053.5	3.52970E+000	3.52971E+000	-3.79080E-004	...........	-327.56
	420	1056.01	3.52970E+000	3.52970E+000	-3.77953E-004	...........	-327.56
	421	1058.52	3.52970E+000	3.52969E+000	-3.78167E-004	...........	-327.56
	422	1061.03	3.52970E+000	3.52969E+000	-3.78953E-004	...........	-327.56
	423	1063.53	3.52970E+000	3.52970E+000	-3.74567E-004	...........	-327.56
	424	1066.04	3.52970E+000	3.52968E+000	-3.80280E-004	...........	-327.56
	425	1068.55	3.52970E+000	3.52969E+000	-3.85380E-004	...........	-327.56
	426	1071.06	3.52970E+000	3.52971E+000	-3.86340E-004	...........	-327.56
	427	1073.57	3.52970E+000	3.52969E+000	-3.80193E-004	...........	-327.56
	428	1076.08	3.52970E+000	3.52970E+000	-3.82207E-004	...........	-327.56
	429	1078.58	3.52970E+000	3.52971E+000	-3.84347E-004	...........	-327.56
	430	1081.09	3.52970E+000	3.52970E+000	-3.85347E-004	...........	-327.56
	431	1083.6	3.52970E+000	3.52971E+000	-3.83807E-004	...........	-327.56
	432	1086.11	3.52970E+000	3.52971E+000	-3.84627E-004	...........	-327.56
	433	1088.62	3.52970E+000	3.52969E+000	-3.84500E-004	...........	-327.56
	434	1091.13	3.52971E+000	3.52970E+000	-3.82233E-004	...........	-327.56
	435	1093.63	3.52970E+000	3.52970E+000	-3.77847E-004	...........	-327.56
	436	1096.14	3.52970E+000	3.52969E+000	-3.82940E-004	...........	-327.56
	437	1098.65	3.52970E+000	3.52971E+000	-3.80093E-004	...........	-327.56
	438	1101.16	3.52970E+000	3.52970E+000	-3.77147E-004	...........	-327.56
	439	1103.67	3.52970E+000	3.52970E+000	-3.80593E-004	...........	-327.56
	440	1106.18	3.52970E+000	3.52970E+000	-3.85213E-004	...........	-327.56
	441	1108.68	3.52970E+000	3.52970E+000	-3.83120E-004	...........	-327.56
	442	1111.19	3.52970E+000	3.52969E+000	-3.77713E-004	...........	-327.56
	443	1113.7	3.52970E+000	3.52971E+000	-3.81260E-004	...........	-327.56
	444	1116.21	3.52970E+000	3.52969E+000	-3.75273E-004	...........	-327.56
	445	1118.72	3.52970E+000	3.52969E+000	-3.77893E-004	...........	-327.56
	446	1121.23	3.52970E+000	3.52970E+000	-3.81773E-004	...........	-327.56
	447	1123.73	3.52970E+000	3.52969E+000	-3.78393E-004	...........	-327.56
	448	1126.24	3.52970E+000	3.52970E+000	-3.84387E-004	...........	-327.56
	449	1128.75	3.52970E+000	3.52969E+000	-3.80813E-004	...........	-327.56
	450	1131.26	3.52970E+000	3.52970E+000	-3.84180E-004	...........	-327.56
	451	1133.77	3.52970E+000	3.52971E+000	-3.86967E-004	...........	-327.56
	452	1136.28	3.52970E+000	3.52970E+000	-3.90213E-004	...........	-327.56
	453	1138.78	3.52970E+000	3.52969E+000	-3.84527E-004	...........	-327.56
	454	1141.29	3.52970E+000	3.52969E+000	-3.88013E-004	...........	-327.56
	455	1143.8	3.52970E+000	3.52969E+000	-3.82760E-004	...........	-327.56
	456	1146.31	3.52970E+000	3.52969E+000	-3.86120E-004	...........	-327.56
	457	1148.82	3.52969E+000	3.52969E+000	-3.86107E-004	...........	-327.56
	458	1151.33	3.52969E+000	3.52969E+000	-3.82527E-004	...........	-327.56
	459	1153.83	3.52969E+000	3.52968E+000	-3.85560E-004	...........	-327.56
	460	1156.34	3.52969E+000	3.52969E+000	-3.79833E-004	...........	-327.56
	461	1158.85	3.52969E+000	3.52969E+000	-3.83480E-004	...........	-327.56
	462	1161.36	3.52969E+000	3.52969E+000	-3.84393E-004	...........	-327.56
	463	1163.87	3.52969E+000	3.52969E+000	-3.86080E-004	...........	-327.56
	464	1166.38	3.52969E+000	3.52969E+000	-3.81347E-004	...........	-327.56
	465	1168.88	3.52969E+000	3.52970E+000	-3.85133E-004	...........	-327.56
	466	1171.39	3.52969E+000	3.52969E+000	-3.83620E-004	...........	-327.56
	467	1173.9	3.52969E+000	3.52969E+000	-3.84087E-004	...........	-327.56
	468	1176.41	3.52969E+000	3.52969E+000	-3.88160E-004	...........	-327.56
	469	1178.92	3.52969E+000	3.52970E+000	-3.85140E-004	...........	-327.56
	470	1181.43	3.52969E+000	3.52968E+000	-3.86440E-004	...........	-327.56
	471	1183.93	3.52969E+000	3.52970E+000	-3.78373E-004	...........	-327.56
	472	1186.44	3.52969E+000	3.52970E+000	-3.81700E-004	...........	-327.56
	473	1188.95	3.52969E+000	3.52969E+000	-3.82467E-004	...........	-327.56
	474	1191.46	3.52969E+000	3.52970E+000	-3.81620E-004	...........	-327.56
	475	1193.97	3.52970E+000	3.52970E+000	-3.80053E-004	...........	-327.56
	476	1196.48	3.52970E+000	3.52969E+000	-3.82840E-004	...........	-327.56
	477	1198.98	3.52970E+000	3.52970E+000	-3.84700E-004	...........	-327.56
	478	1201.49	3.52970E+000	3.52971E+000	-3.82787E-004	...........	-327.56
	479	1204	3.52970E+000	3.52969E+000	-3.87333E-004	...........	-327.56
	480	1206.51	3.52970E+000	3.52970E+000	-3.83493E-004	...........	-327.56
	481	1209.02	3.52970E+000	3.52970E+000	-3.84173E-004	...........	-327.56
	482	1211.53	3.52970E+000	3.52973E+000	-3.87113E-004	...........	-327.56
	483	1214.03	3.52970E+000	3.52974E+000	-3.85733E-004	...........	-327.56
	484	1216.54	3.52971E+000	3.52972E+000	-3.86660E-004	...........	-327.56
	485	1219.05	3.52972E+000	3.52973E+000	-3.79260E-004	...........	-327.56
	486	1221.56	3.52973E+000	3.52969E+000	-3.79120E-004	...........	-327.56
	487	1224.07	3.52972E+000	3.52970E+000	-3.84760E-004	...........	-327.56
	488	1226.58	3.52972E+000	3.52971E+000	-3.86387E-004	...........	-327.56
	489	1229.08	3.52971E+000	3.52970E+000	-3.86573E-004	...........	-327.56
	490	1231.59	3.52970E+000	3.52970E+000	-3.86433E-004	...........	-327.56
	491	1234.1	3.52970E+000	3.52969E+000	-3.86727E-004	...........	-327.56
	492	1236.61	3.52970E+000	3.52970E+000	-3.86840E-004	...........	-327.56
	493	1239.12	3.52970E+000	3.52970E+000	-3.81160E-004	...........	-327.56
	494	1241.63	3.52970E+000	3.52969E+000	-3.86567E-004	...........	-327.56
	495	1244.13	3.52970E+000	3.52969E+000	-3.87993E-004	...........	-327.56
	496	1246.64	3.52970E+000	3.52969E+000	-3.83720E-004	...........	-327.56
	497	1249.15	3.52969E+000	3.52970E+000	-3.85287E-004	...........	-327.56
	498	1251.66	3.52969E+000	3.52969E+000	-3.87493E-004	...........	-327.56
	499	1254.17	3.52969E+000	3.52970E+000	-3.87093E-004	...........	-327.56
	500	1256.68	3.52969E+000	3.52970E+000	-3.84340E-004	...........	-327.56
	501	1259.18	3.52970E+000	3.52969E+000	-3.83033E-004	...........	-327.56
	502	1261.69	3.52970E+000	3.52969E+000	-3.83080E-004	...........	-327.56
	503	1264.2	3.52970E+000	3.52970E+000	-3.81333E-004	...........	-327.56
	504	1266.71	3.52970E+000	3.52969E+000	-3.80073E-004	...........	-327.56
	505	1269.22	3.52970E+000	3.52970E+000	-3.79947E-004	...........	-327.56
	506	1271.73	3.52970E+000	3.52971E+000	-3.80487E-004	...........	-327.56
	507	1274.23	3.52970E+000	3.52971E+000	-3.80907E-004	...........	-327.56
	508	1276.74	3.52970E+000	3.52969E+000	-3.80633E-004	...........	-327.56
	509	1279.25	3.52970E+000	3.52970E+000	-3.81347E-004	...........	-327.56
	510	1281.76	3.52970E+000	3.52970E+000	-3.83393E-004	...........	-327.56
	511	1284.27	3.52970E+000	3.52970E+000	-3.83653E-004	...........	-327.56
	512	1286.78	3.52970E+000	3.52969E+000	-3.84327E-004	...........	-327.56
	513	1289.28	3.52970E+000	3.52970E+000	-3.88147E-004	...........	-327.56
	514	1291.79	3.52970E+000	3.52970E+000	-3.87333E-004	...........	-327.56
	515	1294.3	3.52970E+000	3.52970E+000	-3.84707E-004	...........	-327.56
	516	1296.81	3.52970E+000	3.52969E+000	-3.88893E-004	...........	-327.56
	517	1299.32	3.52970E+000	3.52969E+000	-3.84660E-004	...........	-327.56
	518	1301.83	3.52969E+000	3.52969E+000	-3.89847E-004	...........	-327.56
	519	1304.33	3.52969E+000	3.52970E+000	-3.82967E-004	...........	-327.56
	520	1306.84	3.52969E+000	3.52969E+000	-3.86073E-004	...........	-327.56
	521	1309.35	3.52970E+000	3.52969E+000	-3.81627E-004	...........	-327.56
	522	1311.86	3.52970E+000	3.52971E+000	-3.84840E-004	...........	-327.56
	523	1314.37	3.52970E+000	3.52970E+000	-3.81893E-004	...........	-327.56
	524	1316.88	3.52970E+000	3.52970E+000	-3.82060E-004	...........	-327.56
	525	1319.38	3.52970E+000	3.52970E+000	-3.85213E-004	...........	-327.56
	526	1321.89	3.52970E+000	3.52970E+000	-3.86987E-004	...........	-327.56
	527	1324.4	3.52970E+000	3.52971E+000	-3.84887E-004	...........	-327.56
	528	1326.91	3.52970E+000	3.52970E+000	-3.85673E-004	...........	-327.56
	529	1329.42	3.52970E+000	3.52970E+000	-3.87800E-004	...........	-327.56
	530	1331.93	3.52971E+000	3.52971E+000	-3.82573E-004	...........	-327.56
	531	1334.43	3.52971E+000	3.52970E+000	-3.83767E-004	...........	-327.56
	532	1336.94	3.52970E+000	3.52970E+000	-3.89107E-004	...........	-327.56
	533	1339.45	3.52970E+000	3.52972E+000	-3.89413E-004	...........	-327.56
	534	1341.96	3.52970E+000	3.52969E+000	-3.87773E-004	...........	-327.56
	535	1344.47	3.52970E+000	3.52971E+000	-3.88407E-004	...........	-327.56
	536	1346.98	3.52970E+000	3.52969E+000	-3.85680E-004	...........	-327.56
	537	1349.48	3.52970E+000	3.52969E+000	-3.84720E-004	...........	-327.56
	538	1351.99	3.52970E+000	3.52970E+000	-3.82640E-004	...........	-327.56
	539	1354.5	3.52970E+000	3.52971E+000	-3.83193E-004	...........	-327.56
	540	1357.01	3.52970E+000	3.52970E+000	-3.82007E-004	...........	-327.56
	541	1359.52	3.52970E+000	3.52971E+000	-3.87073E-004	...........	-327.56
	542	1362.03	3.52970E+000	3.52971E+000	-3.87467E-004	...........	-327.56
	543	1364.53	3.52971E+000	3.52971E+000	-3.84287E-004	...........	-327.56
	544	1367.04	3.52971E+000	3.52971E+000	-3.87587E-004	...........	-327.56
	545	1369.55	3.52971E+000	3.52971E+000	-3.86173E-004	...........	-327.56
	546	1372.06	3.52971E+000	3.52970E+000	-3.85987E-004	...........	-327.56
	547	1374.57	3.52971E+000	3.52970E+000	-3.84967E-004	...........	-327.56
	548	1377.08	3.52970E+000	3.52970E+000	-3.87620E-004	...........	-327.56
	549	1379.58	3.52970E+000	3.52969E+000	-3.83820E-004	...........	-327.56
	550	1382.09	3.52970E+000	3.52970E+000	-3.85760E-004	...........	-327.56
	551	1384.6	3.52970E+000	3.52970E+000	-3.85973E-004	...........	-327.56
	552	1387.11	3.52970E+000	3.52971E+000	-3.85247E-004	...........	-327.56
	553	1389.62	3.52970E+000	3.52970E+000	-3.92007E-004	...........	-327.56
	554	1392.13	3.52970E+000	3.52970E+000	-3.85827E-004	...........	-327.56
	555	1394.63	3.52970E+000	3.52971E+000	-3.85953E-004	...........	-327.56
	556	1397.14	3.52970E+000	3.52971E+000	-3.84040E-004	...........	-327.56
	557	1399.65	3.52971E+000	3.52971E+000	-3.85287E-004	...........	-327.56
	558	1402.16	3.52971E+000	3.52970E+000	-3.86740E-004	...........	-327.56
	559	1404.67	3.52971E+000	3.52969E+000	-3.89347E-004	...........	-327.56
	560	1407.18	3.52971E+000	3.52969E+000	-3.91353E-004	...........	-327.56
	561	1409.68	3.52970E+000	3.52970E+000	-3.89447E-004	...........	-327.56
	562	1412.19	3.52970E+000	3.52971E+000	-3.91693E-004	...........	-327.56
	563	1414.7	3.52970E+000	3.52971E+000	-3.88333E-004	...........	-327.56
	564	1417.21	3.52970E+000	3.52971E+000	-3.85000E-004	...........	-327.56
	565	1419.72	3.52971E+000	3.52969E+000	-3.82093E-004	...........	-327.56
	566	1422.23	3.52971E+000	3.52969E+000	-3.81513E-004	...........	-327.56
	567	1424.73	3.52971E+000	3.52970E+000	-3.82440E-004	...........	-327.56
	568	1427.24	3.52970E+000	3.52969E+000	-3.89320E-004	...........	-327.56
	569	1429.75	3.52970E+000	3.52971E+000	-3.88807E-004	...........	-327.56
	570	1432.26	3.52970E+000	3.52970E+000	-3.84980E-004	...........	-327.56
	571	1434.77	3.52970E+000	3.52970E+000	-3.85573E-004	...........	-327.56
	572	1437.28	3.52970E+000	3.52969E+000	-3.85893E-004	...........	-327.56
	573	1439.78	3.52970E+000	3.52970E+000	-3.83553E-004	...........	-327.56
	574	1442.29	3.52970E+000	3.52971E+000	-3.84467E-004	...........	-327.56
	575	1444.8	3.52970E+000	3.52970E+000	-3.80760E-004	...........	-327.56
	576	1447.31	3.52970E+000	3.52970E+000	-3.82000E-004	...........	-327.56
	577	1449.82	3.52970E+000	3.52969E+000	-3.84253E-004	...........	-327.56
	578	1452.33	3.52970E+000	3.52970E+000	-3.86313E-004	...........	-327.56
	579	1454.83	3.52970E+000	3.52970E+000	-3.84913E-004	...........	-327.56
	580	1457.34	3.52970E+000	3.52971E+000	-3.83660E-004	...........	-327.56
	581	1459.85	3.52970E+000	3.52970E+000	-3.85700E-004	...........	-327.56
	582	1462.36	3.52970E+000	3.52970E+000	-3.82440E-004	...........	-327.56
	583	1464.87	3.52970E+000	3.52970E+000	-3.83493E-004	...........	-327.56
	584	1467.38	3.52970E+000	3.52970E+000	-3.82760E-004	...........	-327.56
	585	1469.88	3.52970E+000	3.52970E+000	-3.87340E-004	...........	-327.56
	586	1472.39	3.52970E+000	3.52970E+000	-3.82693E-004	...........	-327.56
	587	1474.9	3.52970E+000	3.52970E+000	-3.85647E-004	...........	-327.56
	588	1477.41	3.52970E+000	3.52969E+000	-3.85513E-004	...........	-327.56
	589	1479.92	3.52970E+000	3.52968E+000	-3.83233E-004	...........	-327.56
	590	1482.43	3.52970E+000	3.52970E+000	-3.84367E-004	...........	-327.56
	591	1484.93	3.52970E+000	3.52969E+000	-3.83200E-004	...........	-327.56
	592	1487.44	3.52969E+000	3.52970E+000	-3.86540E-004	...........	-327.56
	593	1489.95	3.52969E+000	3.52970E+000	-3.84287E-004	...........	-327.56
	594	1492.46	3.52970E+000	3.52969E+000	-3.84567E-004	...........	-327.56
	595	1494.97	3.52970E+000	3.52969E+000	-3.86920E-004	...........	-327.56
	596	1497.48	3.52970E+000	3.52970E+000	-3.83460E-004	...........	-327.56
	597	1499.98	3.52969E+000	3.52969E+000	-3.87773E-004	...........	-327.56
	598	1502.49	3.52969E+000	3.52971E+000	-3.86167E-004	...........	-327.56
	599	1505	3.52969E+000	3.52970E+000	-3.83640E-004	...........	-327.56
	600	1507.51	3.52970E+000	3.52970E+000	-3.84087E-004	...........	-327.56
	601	1510.02	3.52970E+000	3.52968E+000	-3.88060E-004	...........	-327.56
	602	1512.53	3.52970E+000	3.52971E+000	-3.83840E-004	...........	-327.56
	603	1515.03	3.52970E+000	3.52971E+000	-3.84727E-004	...........	-327.56
	604	1517.54	3.52970E+000	3.52970E+000	-3.85620E-004	...........	-327.56
	605	1520.05	3.52970E+000	3.52971E+000	-3.84927E-004	...........	-327.56
	606	1522.56	3.52970E+000	3.52969E+000	-3.82580E-004	...........	-327.56
	607	1525.07	3.52970E+000	3.52970E+000	-3.83120E-004	...........	-327.56
	608	1527.58	3.52970E+000	3.52971E+000	-3.87180E-004	...........	-327.56
	609	1530.08	3.52970E+000	3.52970E+000	-3.86480E-004	...........	-327.56
	610	1532.59	3.52970E+000	3.52971E+000	-3.84827E-004	...........	-327.56
	611	1535.1	3.52970E+000	3.52970E+000	-3.81633E-004	...........	-327.56
	612	1537.61	3.52971E+000	3.52970E+000	-3.82973E-004	...........	-327.56
	613	1540.12	3.52970E+000	3.52971E+000	-3.84600E-004	...........	-327.56
	614	1542.63	3.52970E+000	3.52970E+000	-3.79240E-004	...........	-327.56
	615	1545.13	3.52970E+000	3.52970E+000	-3.81787E-004	...........	-327.56
	616	1547.64	3.52970E+000	3.52970E+000	-3.78093E-004	...........	-327.56
	617	1550.15	3.52970E+000	3.52970E+000	-3.80360E-004	...........	-327.56
	618	1552.66	3.52970E+000	3.52971E+000	-3.82293E-004	...........	-327.56
	619	1555.17	3.52970E+000	3.52971E+000	-3.81227E-004	...........	-327.56
	620	1557.68	3.52971E+000	3.52970E+000	-3.85927E-004	...........	-327.56
	621	1560.18	3.52971E+000	3.52973E+000	-3.81360E-004	...........	-327.56
	622	1562.69	3.52971E+000	3.52974E+000	-3.87087E-004	...........	-327.56
	623	1565.2	3.52971E+000	3.52971E+000	-3.85087E-004	...........	-327.56
	624	1567.71	3.52972E+000	3.52973E+000	-3.82973E-004	...........	-327.56
	625	1570.22	3.52972E+000	3.52975E+000	-3.78453E-004	...........	-327.56
	626	1572.73	3.52973E+000	3.52973E+000	-3.85180E-004	...........	-327.56
	627	1575.23	3.52973E+000	3.52973E+000	-3.86920E-004	...........	-327.56
	628	1577.74	3.52973E+000	3.52972E+000	-3.90447E-004	...........	-327.56
	629	1580.25	3.52973E+000	3.52972E+000	-3.87867E-004	...........	-327.56
	630	1582.76	3.52973E+000	3.52972E+000	-3.89253E-004	...........	-327.56
	631	1585.27	3.52973E+000	3.52973E+000	-3.87240E-004	...........	-327.56
	632	1587.78	3.52972E+000	3.52972E+000	-3.85673E-004	...........	-327.56
	633	1590.28	3.52973E+000	3.52973E+000	-3.85460E-004	...........	-327.56
	634	1592.79	3.52973E+000	3.52971E+000	-3.83920E-004	...........	-327.56
	635	1595.3	3.52972E+000	3.52973E+000	-3.81913E-004	...........	-327.56
	636	1597.81	3.52972E+000	3.52972E+000	-3.80087E-004	...........	-327.56
	637	1600.32	3.52972E+000	3.52970E+000	-3.85407E-004	...........	-327.56
	638	1602.83	3.52972E+000	3.52969E+000	-3.87587E-004	...........	-327.56
	639	1605.33	3.52971E+000	3.52969E+000	-3.88960E-004	...........	-327.56
	640	1607.84	3.52971E+000	3.52970E+000	-3.91160E-004	...........	-327.56
	641	1610.35	3.52970E+000	3.52969E+000	-3.87827E-004	...........	-327.56
	642	1612.86	3.52969E+000	3.52971E+000	-3.85760E-004	...........	-327.56
	643	1615.37	3.52969E+000	3.52971E+000	-3.88880E-004	...........	-327.56
	644	1617.88	3.52970E+000	3.52969E+000	-3.90373E-004	...........	-327.56
	645	1620.38	3.52970E+000	3.52969E+000	-3.87960E-004	...........	-327.56
	646	1622.89	3.52970E+000	3.52970E+000	-3.84127E-004	...........	-327.56
	647	1625.4	3.52970E+000	3.52971E+000	-3.84587E-004	...........	-327.56
	648	1627.91	3.52970E+000	3.52969E+000	-3.92060E-004	...........	-327.56
	649	1630.42	3.52970E+000	3.52970E+000	-3.85107E-004	...........	-327.56
	650	1632.93	3.52970E+000	3.52971E+000	-3.86840E-004	...........	-327.56
	651	1635.43	3.52970E+000	3.52973E+000	-3.85947E-004	...........	-327.56
	652	1637.94	3.52971E+000	3.52970E+000	-3.88300E-004	...........	-327.56
	653	1640.45	3.52971E+000	3.52969E+000	-3.84133E-004	...........	-327.56
	654	1642.96	3.52971E+000	3.52969E+000	-3.86420E-004	...........	-327.56
	655	1645.47	3.52970E+000	3.52971E+000	-3.83913E-004	...........	-327.56
	656	1647.98	3.52970E+000	3.52970E+000	-3.87327E-004	...........	-327.56
	657	1650.48	3.52970E+000	3.52969E+000	-3.82713E-004	...........	-327.56
	658	1652.99	3.52970E+000	3.52971E+000	-3.82420E-004	...........	-327.56
	659	1655.5	3.52970E+000	3.52972E+000	-3.80280E-004	...........	-327.56
	660	1658.01	3.52970E+000	3.52970E+000	-3.82953E-004	...........	-327.56
	661	1660.52	3.52971E+000	3.52972E+000	-3.85440E-004	...........	-327.56
	662	1663.03	3.52971E+000	3.52970E+000	-3.83713E-004	...........	-327.56
	663	1665.53	3.52971E+000	3.52970E+000	-3.84720E-004	...........	-327.56
	664	1668.04	3.52971E+000	3.52971E+000	-3.82973E-004	...........	-327.56
	665	1670.55	3.52971E+000	3.52970E+000	-3.76400E-004	...........	-327.56
	666	1673.06	3.52971E+000	3.52971E+000	-3.81267E-004	...........	-327.56
	667	1675.57	3.52971E+000	3.52970E+000	-3.76760E-004	...........	-327.56
	668	1678.08	3.52971E+000	3.52970E+000	-3.78073E-004	...........	-327.56
	669	1680.58	3.52971E+000	3.52971E+000	-3.87767E-004	...........	-327.56
	670	1683.09	3.52971E+000	3.52971E+000	-3.80387E-004	...........	-327.56
	671	1685.6	3.52971E+000	3.52971E+000	-3.80833E-004	...........	-327.56
	672	1688.11	3.52971E+000	3.52970E+000	-3.80420E-004	...........	-327.56
	673	1690.62	3.52971E+000	3.52970E+000	-3.80313E-004	...........	-327.56
	674	1693.13	3.52971E+000	3.52971E+000	-3.83113E-004	...........	-327.56
	675	1695.63	3.52970E+000	3.52970E+000	-3.79633E-004	...........	-327.56
	676	1698.14	3.52970E+000	3.52971E+000	-3.79353E-004	...........	-327.56
	677	1700.65	3.52971E+000	3.52971E+000	-3.80887E-004	...........	-327.56
	678	1703.16	3.52971E+000	3.52972E+000	-3.78580E-004	...........	-327.56
	679	1705.67	3.52971E+000	3.52971E+000	-3.79667E-004	...........	-327.56
	680	1708.18	3.52971E+000	3.52970E+000	-3.77973E-004	...........	-327.56
	681	1710.68	3.52971E+000	3.52972E+000	-3.83640E-004	...........	-327.56
	682	1713.19	3.52971E+000	3.52971E+000	-3.80753E-004	...........	-327.56
	683	1715.7	3.52971E+000	3.52970E+000	-3.84113E-004	...........	-327.56
	684	1718.21	3.52971E+000	3.52970E+000	-3.82847E-004	...........	-327.56
	685	1720.72	3.52971E+000	3.52970E+000	-3.79387E-004	...........	-327.56
	686	1723.23	3.52971E+000	3.52972E+000	-3.78347E-004	...........	-327.56
	687	1725.73	3.52971E+000	3.52972E+000	-3.79553E-004	...........	-327.56
	688	1728.24	3.52971E+000	3.52971E+000	-3.79887E-004	...........	-327.56
	689	1730.75	3.52971E+000	3.52972E+000	-3.81473E-004	...........	-327.56
	690	1733.26	3.52971E+000	3.52970E+000	-3.82000E-004	...........	-327.56
	691	1735.77	3.52971E+000	3.52971E+000	-3.81513E-004	...........	-327.56
	692	1738.28	3.52971E+000	3.52971E+000	-3.80540E-004	...........	-327.56
	693	1740.78	3.52971E+000	3.52971E+000	-3.79567E-004	...........	-327.56
	694	1743.29	3.52971E+000	3.52971E+000	-3.77167E-004	...........	-327.56
	695	1745.8	3.52971E+000	3.52971E+000	-3.78120E-004	...........	-327.56
	696	1748.31	3.52971E+000	3.52972E+000	-3.81353E-004	...........	-327.56
	697	1750.82	3.52971E+000	3.52971E+000	-3.81353E-004	...........	-327.56
	698	1753.33	3.52971E+000	3.52971E+000	-3.76727E-004	...........	-327.56
	699	1755.83	3.52971E+000	3.52971E+000	-3.78913E-004	...........	-327.56
	700	1758.34	3.52971E+000	3.52971E+000	-3.80213E-004	...........	-327.56
	701	1760.85	3.52971E+000	3.52971E+000	-3.77513E-004	...........	-327.56
	702	1763.36	3.52971E+000	3.52971E+000	-3.80220E-004	...........	-327.56
	703	1765.87	3.52971E+000	3.52971E+000	-3.78780E-004	...........	-327.56
	704	1768.38	3.52971E+000	3.52972E+000	-3.81020E-004	...........	-327.56
	705	1770.88	3.52971E+000	3.52970E+000	-3.82093E-004	...........	-327.56
	706	1773.39	3.52971E+000	3.52972E+000	-3.79960E-004	...........	-327.56
	707	1775.9	3.52971E+000	3.52972E+000	-3.80333E-004	...........	-327.56
	708	1778.41	3.52971E+000	3.52971E+000	-3.81727E-004	...........	-327.56
	709	1780.92	3.52972E+000	3.52972E+000	-3.79487E-004	...........	-327.56
	710	1783.43	3.52972E+000	3.52970E+000	-3.78627E-004	...........	-327.56
	711	1785.93	3.52972E+000	3.52971E+000	-3.83407E-004	...........	-327.56
	712	1788.44	3.52971E+000	3.52971E+000	-3.79040E-004	...........	-327.56
	713	1790.95	3.52971E+000	3.52972E+000	-3.77927E-004	...........	-327.56
	714	1793.46	3.52971E+000	3.52971E+000	-3.81220E-004	...........	-327.56
	715	1795.97	3.52971E+000	3.52971E+000	-3.81473E-004	...........	-327.56
	716	1798.48	3.52971E+000	3.52971E+000	-3.84313E-004	...........	-327.56
	717	1800.98	3.52971E+000	3.52970E+000	-3.80833E-004	...........	-327.56
EOC	QUANT	3.529714	Open Circuit (V)
PSTATMODEL	IQUANT	5	Pstat Model
PSTATSECTION	LABEL	REF3000-51199	Pstat Section
PSTATSERIALNO	LABEL	51199	Pstat Serial Number
CTRLMODE	IQUANT	1	Control Mode
ELECTROMETER	IQUANT	0	RE=0 or CS=1
IESTAB	IQUANT	0	I/E Stability
CASPEED	IQUANT	3	Control Amp Speed
CONVENTION	IQUANT	1	Current Convention
ICHRANGE	IQUANT	2	Ich Range
ICHRANGEMODE	TOGGLE	F	Ich Auto Range
ICHOFFSETENABLE	TOGGLE	T	Ich Offset Enable
ICHOFFSET	QUANT	0	Ich Offset (V)
ICHFILTER	IQUANT	3	Ich Filter
VCHRANGE	IQUANT	2	Vch Range
VCHRANGEMODE	TOGGLE	F	Vch Auto Range
VCHOFFSETENABLE	TOGGLE	T	Vch Offset Enable
VCHOFFSET	QUANT	0	Vch Offset (V)
VCHFILTER	IQUANT	3	Vch Filter
ACHRANGE	IQUANT	2	Ach Range
ACHOFFSETENABLE	TOGGLE	F	Ach Offset Enable
ACHOFFSET	QUANT	0	Ach Offset (V)
ACHFILTER	IQUANT	1	Ach Filter
IERANGELOWERLIMIT	IQUANT	2	I/E Range Lower Limit
IERANGEMODE	TOGGLE	F	I/E AutoRange
IERANGE	IQUANT	12	I/E Range
POSFEEDENABLE	TOGGLE	F	Positive Feedback IR Comp
POSFEEDRESISTANCE	QUANT	0	Positive Feedback Resistance (ohm)
ACHSELECT	IQUANT	4	Ach Select
SENSECABLEID	IQUANT	14	Sense Cable ID
PWRCABLEID	IQUANT	7	Power Cable ID
DCCALDATE	LABEL	1/28/2026	DC Calibration Date
ACCALDATE	LABEL	1/28/2026	AC Calibration Date
THERMOSELECT	IQUANT	1	Thermo Select
FRAMEWORKVERSION	LABEL	7.11.0	Framework Version
INSTRUMENTVERSION	LABEL	5.20	Instrument Version
COMMVERSION	LABEL	5.10	Communications Version
CPUPLDVERSION	LABEL	6.00	CPU PLD Version
CTRLPLDVERSION	LABEL	3.21	CTRL PLD Version
PSTATPLDVERSION	LABEL	0.00	PSTAT PLD Version
COMPLIANCEVOLTAGE	IQUANT	0	Compliance Voltage
ZCURVE	TABLE
	Pt	Time	Freq	Zreal	Zimag	Zsig	Zmod	Zphz	ZrealDrCor	ZimagDrCor	ZmodDrCor	ZphzDrCor	Idc	Vdc	IERange	Imod	Vmod	Temp	Ithd	Vthd	IHr1	IHi1	VHr1	VHi1	IHr2	IHi2	VHr2	VHi2	IHr3	IHi3	VHr3	VHi3	IHr4	IHi4	VHr4	VHi4	IHr5	IHi5	VHr5	VHi5	IHr6	IHi6	VHr6	VHi6	IHr7	IHi7	VHr7	VHi7	IHr8	IHi8	VHr8	VHi8	IHr9	IHi9	VHr9	VHi9	IHr10	IHi10	VHr10	VHi10
	#	s	Hz	ohm	ohm	V	ohm	deg	ohm	ohm	ohm	deg	A	V	#	A	V	degC	#	#	A	A	V	V	A	A	V	V	A	A	V	V	A	A	V	V	A	A	V	V	A	A	V	V	A	A	V	V	A	A	V	V	A	A	V	V	A	A	V	V
	0	2	10078.13	0.0665916	0.0420185	1	0.0787401	32.25147	0.0665916	0.0420185	0.0787401	32.25147	-0.0478808	3.52607	11	0.1222528	0.0096258	-327.5556	0.1077193	0.1657734	-11.06198	-0.2614673	-0.7264041	-0.4810089	-0.9360938	-0.1957688	-0.0530882	-0.0879147	-0.6729222	-0.0922998	-0.0427167	-0.0836566	0.1923994	-0.0116011	0.0182623	0.0271959	0.0654296	0.0079299	0.0047681	0.0123274	0.0348679	0.003298	0.0028384	0.0075759	-0.0220415	-0.0002431	-0.0023254	-0.0055571	-0.0348463	-0.000152	-0.0039871	-0.0093794	0.0141171	-0.0016818	0.001987	0.0040185	0.0104464	0.0010354	0.0011027	0.0036855
	1	4	8015.625	0.0652345	0.0339265	1	0.0735292	27.47756	0.0652345	0.0339265	0.0735292	27.47756	-0.0470667	3.526048	11	0.1629594	0.0119819	-327.5556	0.0971527	0.1501427	-7.950224	-12.42331	-0.0985556	-1.079993	0.5533586	-0.6922483	0.0834484	-0.0133955	1.058791	-0.0269401	0.0822818	0.095688	-0.2392798	-0.2389315	0.0092144	-0.0478766	0.0384159	-0.1590106	0.0267451	-0.008049	-0.0339883	0.0280526	-0.0080419	-0.0032887	-0.0103457	-0.0094791	0.00087	-0.0028775	0.0005063	-0.0413531	0.0091524	-0.0038998	-0.0075516	0.005436	-0.0020306	-0.0013077	-0.0315249	-0.0108896	-0.0003574	-0.0098171
	2	6	6328.125	0.0641268	0.026976	1	0.0695698	22.81488	0.0641268	0.026976	0.0695698	22.81488	-0.0458676	3.52607	11	0.1625867	0.0113109	-327.5556	0.095082	0.1369492	12.21645	8.204216	0.5629563	0.855067	-0.0554372	-0.8419444	0.0396717	-0.060416	-0.3861995	0.973005	-0.1007054	0.0415239	-0.2304252	0.2500061	-0.04184	-0.0031047	0.1652045	-0.0372748	0.0177821	0.0165422	0.0492366	-0.0060773	0.0049704	0.0064712	-0.0074288	-0.0111315	0.0011487	-0.0022597	7.458031E-005	0.0412783	-0.0073838	0.0038142	-0.0040136	0.0075134	-0.0018313	-3.091991E-005	0.02909	-0.0192122	0.007143	0.0044923
	3	7	5015.625	0.0633533	0.0213239	1	0.0668457	18.60255	0.0633533	0.0213239	0.0668457	18.60255	-0.0453896	3.526051	11	0.1690121	0.0112976	-327.5556	0.0915253	0.12391	14.93654	-3.302282	1.016774	0.1084626	-0.7940432	0.0169324	-0.0536329	-0.0321069	0.984657	-0.4286426	0.0947337	0.0297492	0.2304453	-0.27664	0.0386553	-0.0022159	-0.0874216	0.1745098	-0.0235422	0.0050511	0.0150898	0.0711575	-0.0067184	0.0073239	-0.0005797	-0.017621	0.0022182	-0.001605	-0.0003609	0.0368516	-0.0055037	0.0030825	0.0036449	0.0059789	-0.0007277	0.0010792	-0.0263323	-0.0269348	0.0023739	-0.0073895
	4	9	3984.375	0.0628542	0.016679	1	0.0650295	14.86147	0.0628542	0.016679	0.0650295	14.86147	-0.0445096	3.526062	11	0.1705962	0.0110937	-327.5556	0.0879645	0.1118532	4.376523	14.80738	0.0287627	1.003677	0.7366661	-0.0468471	0.0495093	0.0217488	-0.5460846	-0.9022653	0.0073588	-0.0880189	0.1646131	-0.3275035	0.0325	-0.0126665	-0.2044172	-0.0286128	-0.0127774	-0.0180283	-0.0502154	-0.0697775	0.0026023	-0.0099463	-0.0168673	0.0116388	-0.0026338	-0.0008833	0.0129339	0.0327955	-0.002889	0.0041451	-0.0036303	0.0058225	-0.0010061	0.0001245	0.0389396	0.0059505	0.0024998	0.0060661
	5	11	3170.956	0.0625811	0.01286	1	0.0638888	11.61226	0.0625811	0.01286	0.0638888	11.61226	-0.0438763	3.526062	11	0.1704915	0.0108925	-327.5556	0.0839252	0.1010238	-14.20241	-6.034181	-0.8114894	-0.5598474	-0.10518	-0.6721795	0.0113392	-0.0458361	0.0364566	-1.009616	0.0426955	-0.0655127	-0.0532312	0.3652306	-0.0226376	0.0223055	-0.0969818	0.1871377	-0.0187358	0.007128	0.0393967	-0.0901551	0.009609	-0.0036573	0.0190659	-0.0115239	0.0024161	0.0008173	0.0258574	0.021545	-0.0001378	0.0042891	-0.0066663	-0.0039445	-0.0002282	-0.0010109	-0.0277754	-0.0291133	0.0011013	-0.005513
	6	13	2527.573	0.0624911	0.0097119	1	0.0632412	8.8338	0.0624911	0.0097119	0.0632412	8.8338	-0.0438758	3.526017	11	0.1691337	0.0106962	-327.5556	0.0792115	0.0906266	-11.35693	10.26461	-0.8091742	0.5314811	-0.457166	0.4250633	-0.0380407	0.0171583	0.1316622	0.9311703	-0.0213444	0.0646806	-0.343356	-0.1402969	-0.0169589	-0.0238194	-0.1881851	0.0881567	-0.0173838	-0.0035367	-0.0080778	-0.1098131	0.0060921	-0.0081322	-0.014823	-0.0209229	0.0003932	-0.002553	-0.0107146	-0.0324144	0.0018122	-0.0032656	0.008203	-0.0019621	0.0007956	0.000627	0.0185053	-0.0340113	0.0046545	-0.0008893
	7	15	1976.103	0.0624813	0.0068805	1	0.062859	6.284157	0.0624813	0.0068805	0.062859	6.284157	-0.0437429	3.525995	12	0.1741504	0.0109468	-327.5556	0.0775247	0.0852074	-6.287949	-14.45377	-0.2943242	-0.9460705	0.5694777	0.0423734	0.0349815	0.0119267	0.5164188	0.8018807	0.0127006	0.0641462	0.1112262	-0.3933738	0.0202937	-0.0220351	0.2377123	-0.0687121	0.0186296	0.0050671	-0.1395556	-0.0622414	-0.0063868	-0.0109593	0.0034045	-0.0361841	0.0023451	-0.0022523	0.0150329	0.042854	-0.0016609	0.003942	-0.0038562	-0.0088439	0.0003724	-0.0009137	0.0339986	-0.0328392	0.0049376	0.0002079
	8	17	1577.524	0.06267	0.0047599	1	0.0628505	4.343359	0.06267	0.0047599	0.0628505	4.343359	-0.0436244	3.525968	12	0.1639446	0.0103039	-327.5556	0.0708597	0.0749495	-1.693508	-14.74161	-0.0366684	-0.9318861	0.3626429	0.3566374	0.0180686	0.026719	-0.3257509	0.7285466	-0.0350683	0.0393448	0.377888	-0.0035041	0.0242555	0.0097866	0.0543692	0.1968698	-0.0028861	0.0146306	0.0937375	-0.1096905	0.0106068	-0.0035656	0.0201617	0.0201264	0.0004055	0.0021994	-0.0373783	-0.0225371	-0.0014893	-0.0034192	0.0098284	0.0117951	0.0000966	0.0013331	-0.0261448	0.031422	-0.0038619	0.0005455
	9	19	1265.625	0.0629498	0.0030265	1	0.0630225	2.75251	0.0629498	0.0030265	0.0630225	2.75251	-0.0431831	3.525961	12	0.1627027	0.0102539	-327.5556	0.0625475	0.0646419	10.34147	-10.48399	0.6823401	-0.6290797	-0.3729189	0.189594	-0.0250826	0.0082413	0.045577	-0.695268	0.0137944	-0.0428	-0.3001272	-0.1838338	-0.0150306	-0.0180469	0.1778391	-0.0757638	0.0135157	-0.0001607	-0.0079023	-0.1492901	0.0041848	-0.0100005	0.0193759	0.0219919	0.0004411	0.0021942	0.0075827	-0.0422214	0.0023285	-0.0025005	-0.01387	0.0050876	-0.001159	-0.0002539	0.0153488	-0.0341745	0.0027335	-0.0016005
	10	21	998.264	0.0633332	0.0014653	1	0.0633502	1.325345	0.0633332	0.0014653	0.0633502	1.325345	-0.0424181	3.525979	12	0.1607434	0.0101831	-327.5556	0.0536946	0.054286	-14.50812	-1.087666	-0.9172939	-0.0897045	-0.0802064	-0.3232321	-0.0027862	-0.0208604	-0.2087425	-0.5495941	-0.0064421	-0.0367762	0.161738	0.2641845	0.0058197	0.019171	0.1077626	0.1429402	0.00389	0.0112095	-0.120177	-0.0850006	-0.0056489	-0.0083897	-0.0230657	-0.020763	-0.0009539	-0.0020018	0.0396317	-0.0151867	0.0029883	0.0003334	0.0022828	0.0128002	-0.0003653	0.0009086	0.0040016	0.0333337	-0.0009993	0.0024641
	11	22	796.875	0.063864	0.0001978	1	0.0638643	0.1774494	0.063864	0.0001978	0.0638643	0.1774494	-0.0412976	3.526026	11	0.1553953	0.0099242	-327.5556	0.044481	0.0442537	-14.01279	1.208144	-0.8951419	0.0745015	-0.1395694	-0.2300665	-0.0074692	-0.0152011	-0.3328506	-0.3273011	-0.0178664	-0.0235348	0.225339	0.1089671	0.0127034	0.0098101	0.1425498	0.0302072	0.0083852	0.0042975	-0.117882	0.0281104	-0.0078697	-0.0006711	-0.0241367	0.0083175	-0.0015886	-9.334088E-005	0.0033556	-0.0327235	0.0010779	-0.0019526	0.0096708	-0.0004253	0.0006436	0.0001564	0.0258271	-0.0020119	0.0017316	0.0006382
	12	24	627.7902	0.0644148	-0.0009224	1	0.0644214	-0.8203754	0.0644148	-0.0009224	0.0644214	-0.8203754	-0.0404376	3.526067	11	0.1569076	0.0101082	-327.5556	0.0372956	0.0366623	9.6633	-10.4071	0.6127906	-0.6793474	-0.1987004	0.0797304	-0.0128072	0.0042963	0.0915849	-0.3818995	0.0083103	-0.0233476	-0.1523884	-0.1502596	-0.0080819	-0.0108572	0.1345792	-0.0256134	0.0087473	-4.005433E-005	0.029556	-0.1118821	0.00361	-0.006598	0.0157003	0.0231409	0.0006404	0.0017943	0.0276857	-0.0212554	0.002317	-0.0008487	-0.0066505	0.0026146	-0.0003424	-5.817414E-005	0.0147579	-0.0154267	0.0013608	-0.0006635
	13	25	505.5147	0.0649874	-0.0017892	1	0.065012	-1.577042	0.0649874	-0.0017892	0.065012	-1.577042	-0.0405999	3.526026	11	0.1548552	0.0100674	-327.5556	0.0313181	0.0304101	10.86084	-8.859309	0.6899173	-0.5952322	-0.1741359	0.0093515	-0.0110714	0.0002384	0.2153618	-0.2396305	0.0146086	-0.0141704	-0.0239024	-0.1797892	-0.0001819	-0.0113008	0.092788	0.0660256	0.0051875	0.0049634	0.0975024	-0.0334938	0.0065491	-0.0007934	-0.0123152	0.0201725	-0.0011132	0.001163	0.0247211	0.0211285	0.0011216	0.001678	-0.0025865	-0.0068301	-4.380942E-005	-0.0004611	0.011863	0.0126564	0.000484	0.0010307
	14	27	397.9953	0.0656843	-0.0026012	1	0.0657358	-2.267836	0.0656843	-0.0026012	0.0657358	-2.267836	-0.0401363	3.526039	11	0.1529428	0.0100538	-327.5556	0.0255771	0.0244987	-9.89245	-9.6831	-0.6750063	-0.6102515	0.1349053	-0.0319401	0.0085373	-0.0019591	0.228554	0.1183497	0.0140923	0.0080762	-0.0662727	-0.1310013	-0.003441	-0.0084589	0.0195099	-0.0924867	0.0018573	-0.0056293	-0.0596766	0.0653858	-0.0043063	0.0035205	-0.0211902	0.0032033	-0.0013912	8.371472E-005	0.0296783	0.0014443	0.0019474	0.0003422	-0.0022038	0.004494	-0.0003202	0.0003309	-0.0141773	0.001341	-0.0009415	-0.0001338
	15	29	315.5048	0.0664527	-0.0032546	1	0.0665323	-2.803921	0.0664527	-0.0032546	0.0665323	-2.803921	-0.0390177	3.526098	11	0.1508173	0.0100342	-327.5556	0.0207157	0.0196943	10.4685	-8.760395	0.6671164	-0.6162573	-0.1085597	4.107133E-005	-0.0070827	-7.55787E-005	0.1527831	-0.135791	0.009787	-0.0083308	0.0021727	-0.1179079	0.0002874	-0.0072298	0.0545486	0.0581011	0.003302	0.0039818	0.0710829	-0.0072079	0.0045921	6.055832E-005	-0.0119906	0.0140238	-0.0009966	0.0007148	0.0110635	0.0212474	0.0004818	0.0014648	-0.0019619	-0.0039549	-0.0001249	-0.0002154	0.0038625	0.009208	0.0001779	0.0006187
	16	30	252.4038	0.0672272	-0.0037533	1	0.0673319	-3.195488	0.0672272	-0.0037533	0.0673319	-3.195488	-0.0395017	3.526033	11	0.1487859	0.010018	-327.5556	0.016746	0.0157708	-13.25882	2.35627	-0.8825007	0.2082057	-0.0419288	-0.0775	-0.0028353	-0.0049927	-0.1016682	-0.1249704	-0.0063347	-0.0079951	0.0791854	0.0535969	0.0049893	0.0034089	0.0583527	0.0225416	0.0035882	0.0015244	-0.0584696	0.0006102	-0.0036001	-0.0001874	-0.0141233	0.0035351	-0.0008659	0.0001733	0.0132606	-0.014326	0.0009732	-0.0009097	0.0038299	-0.0011365	0.0003738	-9.439887E-005	0.007269	0.0003179	0.0002406	2.551079E-005
	17	32	198.6229	0.0681349	-0.0041618	1	0.0682619	-3.495368	0.0681349	-0.0041618	0.0682619	-3.495368	-0.0390634	3.526045	11	0.1467504	0.0100175	-327.5556	0.0132721	0.012674	-3.717498	12.75149	-0.2001939	0.8843001	-0.0283357	0.0618277	-0.0018313	0.0041679	0.0927269	0.0860405	0.0059905	0.0056889	-0.0599038	0.0445071	-0.0038865	0.0029149	0.0183999	0.045454	0.0010818	0.0027878	-0.0439374	0.0139707	-0.0028702	0.0008245	0.0001162	0.0100694	7.724762E-005	0.0007043	-0.0141269	0.0014502	-0.000909	8.678436E-005	-0.0014391	0.0017822	-0.0001132	5.221367E-005	-0.0007018	0.0063844	-0.0002241	0.0004592
	18	34	158.3615	0.0690039	-0.0044614	1	0.0691479	-3.699247	0.0690039	-0.0044614	0.0691479	-3.699247	-0.0389731	3.526031	11	0.1446342	0.0100012	-327.5556	0.0106008	0.0098854	-0.2880467	-13.08762	-0.0782883	-0.9018094	0.0093615	0.0531319	0.0006413	0.0034012	-0.0983533	0.012466	-0.0064275	0.0010021	0.0135925	0.0582909	0.0008678	0.0036986	-0.0370323	0.0104908	-0.0022531	0.0006714	0.0158455	0.0314155	0.0009907	0.0019405	-0.0079995	0.0042913	-0.0005923	0.0001485	0.0083008	0.0068498	0.0006555	0.0004232	-0.002344	0.0009776	-0.0002382	0.000097	0.0001357	-0.0034023	-2.717972E-005	-0.0001409
	19	36	125.558	0.0699326	-0.0046393	1	0.0700863	-3.795392	0.0699326	-0.0046393	0.0700863	-3.795392	-0.0379515	3.526079	11	0.1427466	0.0100046	-327.5556	0.00836	0.0079317	-12.54872	3.074872	-0.8632937	0.2732683	-0.0245091	-0.0337123	-0.0016482	-0.0023581	-0.0535859	-0.0559629	-0.0036895	-0.0035968	0.0404056	0.0226753	0.0027514	0.001307	0.0298886	0.00796	0.0019255	0.0003922	-0.0264711	0.0039919	-0.001725	0.000242	-0.0057641	0.0021571	-0.000388	0.0001857	0.0048054	-0.0053575	0.000236	-0.0004458	0.0014389	-0.0013115	-7.963182E-005	-0.0002203	0.0028941	-0.0019651	0.000169	-0.0002489
	20	37	100.4464	0.0708125	-0.004721	1	0.0709697	-3.814204	0.0708125	-0.004721	0.0709697	-3.814204	-0.0384249	3.526026	11	0.1408745	0.0099978	-327.5556	0.0066439	0.005992	-12.64146	-1.664049	-0.9030305	-0.0581405	0.0024105	-0.0343996	2.622604E-006	-0.0022013	0.0234035	-0.054607	0.0012414	-0.0035365	-0.0165311	0.0326532	-0.0010173	0.0020745	-0.0141265	0.0216137	-0.0009282	0.0015101	0.0108562	-0.0166042	0.0005794	-0.0012157	0.0026289	-0.002749	0.0000957	-0.0001256	-0.0030387	0.0049038	-0.0002549	0.000298	-0.0010247	0.0012025	-0.0001194	-0.0001302	-0.0021616	0.0016977	-4.726649E-005	-3.57628E-006
	21	39	79.00281	0.0717616	-0.0046802	1	0.071914	-3.731481	0.0717616	-0.0046802	0.071914	-3.731481	-0.0375547	3.526069	11	0.1389703	0.0099939	-327.5556	0.0052638	0.0048458	2.334421	-12.35964	0.1096644	-0.8978737	-0.0052393	0.0270207	-0.000421	0.0019089	-0.039381	-0.0266527	-0.0025213	-0.0016633	-0.017323	0.0212891	-0.00109	0.0014787	-0.0122588	-0.0145794	-0.0009096	-0.0009	-0.0120266	0.0073193	-0.0008938	0.0005126	-0.001586	-0.0037424	-3.862382E-005	-0.000212	-0.0039192	0.0015641	-0.0002167	8.201599E-005	-0.0003432	-0.0014663	-0.0002443	6.699562E-005	0.0037236	-9.378978E-005	0.0001627	-5.984307E-005
	22	41	63.3446	0.0725868	-0.0045551	1	0.0727296	-3.59081	0.0725868	-0.0045551	0.0727296	-3.59081	-0.0380545	3.526015	11	0.1373304	0.009988	-327.5556	0.0042759	0.0039858	-11.65914	4.308448	-0.8266712	0.3658536	-0.0166738	-0.0131798	-0.0010796	-0.0010427	-0.031858	-0.0191031	-0.0022376	-0.0010405	0.0234768	0.0041731	0.001621	0.0002047	0.0148576	-0.0038455	0.0011454	-0.0002751	-0.0111272	0.0063041	-0.000469	0.0005047	-0.0020474	0.0021981	-8.821488E-005	7.152557E-007	-0.0011286	-0.0023457	-3.921987E-005	-6.890298E-005	-0.0002187	-0.0020737	-0.0001863	-0.0001588	-0.0003824	-0.0022655	3.427267E-005	-0.0001848
	23	42	49.86702	0.0734257	-0.0043361	1	0.0735536	-3.379651	0.0734257	-0.0043361	0.0735536	-3.379651	-0.0378055	3.526011	11	0.1355917	0.0099738	-327.5556	0.0032833	0.0030547	0.6406157	-12.25563	-0.0061452	-0.9027033	0.0028856	0.0169633	0.0001385	0.0011581	-0.027821	-0.0054615	-0.0019169	-0.0002635	-0.0039114	0.0169939	-0.0001774	0.0011668	-0.0118305	-0.0016525	-0.0008175	-0.0001125	-0.0023819	0.0075498	-0.0001733	0.0005789	-0.00197	-0.0004157	-0.0001458	-8.821488E-006	-0.000572	0.0026302	-2.646446E-005	0.0001502	-0.0012009	-0.0007847	-3.021956E-005	-4.816056E-005	0.0001302	-0.0009374	4.121661E-005	-0.0001047
	24	44	39.72458	0.0741601	-0.0040651	1	0.0742715	-3.137529	0.0741601	-0.0040651	0.0742715	-3.137529	-0.0369174	3.52606	11	0.1338187	0.0099392	-327.5556	0.0025478	0.0024297	2.704832	11.806	0.2486217	0.8645601	0.0086123	0.0100153	0.000572	0.0007725	0.0170582	-0.0128401	0.0011766	-0.0009685	0.0101807	0.0092511	0.0007644	0.0005838	0.0013499	-0.0085291	7.009506E-005	-0.0005852	0.0069247	0.002534	0.0004804	0.0001236	-0.0004104	-0.0001586	-3.910066E-005	-3.290177E-005	0.0003608	-0.0001261	5.674362E-005	2.849102E-005	-0.000382	-0.0003121	0	-1.943111E-005	-0.0016603	0.0006167	-7.700921E-005	-8.344651E-006
	25	46	31.6723	0.0747985	-0.0037472	1	0.0748923	-2.867941	0.0747985	-0.0037472	0.0748923	-2.867941	-0.0373382	3.526014	11	0.1315431	0.0098518	-327.5556	0.0019316	0.001844	6.816812	9.76126	0.5464957	0.7045844	0.0111813	0.0006199	0.0007915	0.0001076	-0.0037566	-0.0152841	-0.0003846	-0.0010821	0.0061158	-0.0069907	0.0004115	-0.0004731	-0.0043208	0.0016337	-0.000272	0.0001093	-0.0031324	-0.0055636	-0.0002654	-0.0003903	-0.0002832	0.0009271	-3.790856E-005	4.6134E-005	-0.0015417	0.0008526	-0.0001018	9.393692E-005	0.0005002	0.000895	3.695488E-005	5.722046E-005	0.0010204	-0.001111	2.026558E-005	-0.0001303
	26	47	24.93351	0.0753934	-0.0033774	1	0.075469	-2.56497	0.0753934	-0.0033774	0.075469	-2.56497	-0.0368048	3.526037	11	0.1277785	0.0096434	-327.5556	0.0015433	0.0014423	-9.304483	-6.868781	-0.7247156	-0.4864271	0.0069244	-0.0064111	0.0005178	-0.0003769	0.0118797	0.0029432	0.0008707	0.0001867	-0.0042095	-0.0057797	-0.0003276	-0.0003731	0.0001428	-0.0018005	1.66893E-006	-0.0001239	-0.0027865	0.0038235	-0.0001473	0.0002956	-0.0011254	9.274483E-005	-7.247926E-005	-9.536744E-007	0.0001491	-3.591181E-005	7.867813E-006	-2.0504E-005	0.000542	0.0007543	2.69413E-005	5.161762E-005	0.0005726	0.0006987	3.910065E-005	6.79493E-006
	27	49	19.86229	0.0758695	-0.0030154	1	0.0759294	-2.27599	0.0758695	-0.0030154	0.0759294	-2.27599	-0.0369654	3.526013	11	0.1419411	0.0107776	-327.5556	0.0015887	0.0014698	0.4099948	-12.8405	-0.0076294	-0.975447	0.0050505	0.0099889	0.0003049	0.0006752	-0.0118258	-6.599679E-005	-0.000855	8.130074E-005	-0.0005593	0.009145	-5.483628E-005	0.000631	-0.0053888	0.0008243	-0.0003402	0.0001268	0.0001985	0.005114	6.532669E-005	0.0003763	-0.0012685	0.0008865	-0.0001273	2.95639E-005	-0.0006393	0.0028592	3.099442E-006	0.000214	-0.000253	-0.0003379	-0.0001304	-3.57628E-007	-0.0004982	-0.0003986	-3.242494E-005	-0.0000962
	28	51	15.83615	0.0762665	-0.0026703	1	0.0763132	-2.005272	0.0762665	-0.0026703	0.0763132	-2.005272	-0.0349386	3.526153	11	0.1310924	0.0100041	-327.5556	0.0011552	0.0010362	0.3955833	-11.85853	-0.0015082	-0.9054702	0.0027988	0.006847	0.0001342	0.0004374	-0.0081181	-0.000944	-0.0005774	7.927418E-006	-0.0020156	0.0055267	-2.670288E-005	0.0004616	-0.0021496	0.0001115	-0.0001616	6.812811E-005	-0.0014618	0.0041066	-2.241135E-005	0.0002364	-0.0003557	0.0005802	-3.957749E-005	0.0000961	-0.0001592	0.0022651	1.931191E-005	0.0001141	-7.948653E-005	-0.0015095	2.31266E-005	-0.0001041	-0.0003733	-0.0002955	6.67572E-006	-2.920628E-005
	29	52	12.40079	0.0765947	-0.002322	1	0.0766299	-1.736385	0.0765947	-0.002322	0.0766299	-1.736385	-0.0352776	3.526117	11	0.1304717	0.0099981	-327.5556	0.0009948	0.0009045	0.4023362	-11.8021	0.0034034	-0.9049154	0.0030731	0.0069516	0.0001276	0.0005469	-0.0059614	0.0008693	-0.000385	7.468462E-005	-0.0004265	0.0053409	8.034706E-005	0.0002811	-0.0023818	-1.430418E-005	-0.0002632	5.877018E-005	-0.0012836	0.00194	-5.841256E-005	0.0001165	-0.0003147	0.0003558	-2.384186E-007	2.467632E-005	-0.0007018	0.0010099	5.00679E-006	5.364418E-005	-0.0009612	-0.0011653	-3.671647E-005	-3.433229E-005	-0.0002192	-0.0002668	-7.200242E-005	-0.0001193
	30	54	9.93114	0.0768548	-0.0020244	1	0.0768814	-1.508891	0.0768548	-0.0020244	0.0768814	-1.508891	-0.0350297	3.526121	11	0.1302181	0.0100114	-327.5556	0.0006458	0.0005979	0.4028189	-11.77911	0.0071049	-0.906098	0.0036549	0.0006843	0.000165	-3.546477E-006	-0.0053789	-0.0030704	-0.0004053	-0.000214	-7.223339E-006	0.0010171	-1.215935E-005	4.637241E-005	-0.0009051	-0.0010826	-7.677079E-005	-0.0001438	2.061203E-005	-3.380423E-005	-1.907349E-005	-3.755094E-005	-0.0008656	-0.0002914	-5.221368E-005	-2.563E-005	-0.0002829	-0.000619	2.241135E-005	-3.147125E-005	-0.0002567	-0.0004521	1.215935E-005	-2.229214E-005	0.0004737	-0.0009633	1.645088E-005	-0.0001405
	31	56	7.944915	0.0770314	-0.0017622	1	0.0770516	-1.310518	0.0770314	-0.0017622	0.0770516	-1.310518	-0.0347943	3.526121	11	0.1296602	0.0099905	-327.5556	0.0006387	0.0005386	0.4018636	-11.72862	0.0102816	-0.9041815	0.0044777	0.0032704	0.0002019	0.0002138	-0.0038973	-0.0007023	-0.0003273	-5.805493E-005	-0.0002298	0.0022984	-1.430512E-005	0.0001382	-0.001229	-0.0004285	-0.0001023	-4.684926E-005	-0.0006832	0.0012681	-8.106233E-006	5.269051E-005	-0.00057	9.373669E-005	-3.314019E-005	-1.573563E-005	-0.0002775	-0.0000972	-1.072884E-005	-2.968311E-005	-0.0003225	-6.560423E-005	-3.623963E-005	-1.382828E-005	-0.0001454	0.000321	-5.722047E-006	-3.802777E-005
	32	58	6.317385	0.0772021	-0.0015376	1	0.0772175	-1.140989	0.0771846	-0.001537	0.0771999	-1.140818	-0.0346722	3.526115	11	0.1295531	0.0100038	-327.5556	0.00063	0.0004623	0.3990811	-11.71901	0.0127859	-0.9053476	0.0049733	0.0033183	0.0002396	0.0001663	-0.0030825	-0.0001978	-0.0002306	-4.398824E-005	-0.0001961	0.0023483	2.098084E-005	0.0001554	-0.0008174	0.0007253	-3.170968E-005	3.165007E-005	-0.0003456	0.0013593	-2.098084E-005	5.185604E-005	-0.0004629	0.0002961	-1.955032E-005	-2.121925E-005	5.912036E-005	0.0001223	-1.525879E-005	1.478195E-005	-7.054583E-005	0.0001236	-3.147125E-005	-3.433229E-005	0.0004491	0.0001519	1.716614E-005	-3.96967E-005
	33	60	5.008013	0.0773292	-0.0013559	1	0.077341	-1.004501	0.0773211	-0.0013566	0.077333	-1.00513	-0.034218	3.526126	11	0.1292798	0.0099986	-327.5556	0.0004688	0.0003224	0.3885926	-11.69462	0.0141895	-0.9048626	0.0043038	0.0007239	0.0001745	2.148747E-005	-0.0025022	-0.0013608	-0.0001645	-0.0000991	-0.0004226	0.00083	-4.768373E-007	4.649162E-005	-0.0007885	-0.0008712	-6.628037E-005	-7.528068E-005	-0.0003555	0.0005615	-1.859665E-005	3.659725E-005	-0.0003027	-0.0001214	-7.867814E-006	-3.898145E-005	-0.0001256	-0.0000979	-1.788139E-005	-1.525879E-005	-3.762544E-005	0.0002571	5.00679E-006	2.145767E-006	-0.000126	-0.000152	-1.621246E-005	-3.147125E-005
	34	63	3.945707	0.0774478	-0.001206	1	0.0774572	-0.8921511	0.077439	-0.0012061	0.0774483	-0.892287	-0.0344473	3.526093	11	0.1291738	0.0100054	-327.5556	0.0005931	0.0004824	0.3926927	-11.68488	0.0163178	-0.9054427	0.0042374	0.0049384	0.0002141	0.000315	-0.0017618	-0.0007653	-0.0001388	-0.0000982	7.427484E-005	0.0011423	2.360344E-005	5.173683E-005	-0.0005071	-0.0002052	-3.0756E-005	-5.739928E-005	-0.0001204	0.0002819	1.978874E-005	1.835823E-005	6.372854E-005	-3.450551E-005	3.814697E-006	-1.835823E-005	-4.404039E-005	0.0003846	3.242493E-005	3.898144E-005	-0.0003142	-0.0001984	-3.695489E-005	-8.58307E-006	8.381903E-007	-0.0002187	5.483627E-006	-6.508828E-005
	35	66	3.158693	0.0775474	-0.0010956	1	0.0775551	-0.8094012	0.0775388	-0.001099	0.0775466	-0.8120534	-0.0339314	3.526113	11	0.1288948	0.0099965	-327.5556	0.0005536	0.0003207	0.3923429	-11.65963	0.0176489	-0.9046039	0.0041913	0.0033154	0.0001724	0.0001267	-0.0014178	0.0014796	-0.0001037	1.66893E-005	-0.0002527	0.0022052	9.775162E-006	0.0001191	-0.00092	0.0007837	-4.076959E-005	-2.741814E-006	-0.0001043	0.0012672	2.861023E-005	8.022785E-005	-1.481548E-005	0.0004839	-3.099442E-005	1.478195E-005	-5.527587E-005	0.0006585	-8.821488E-006	3.647804E-005	-9.284169E-005	0.0004423	-1.215935E-005	1.132488E-005	0.0001367	0.0002297	1.692772E-005	-3.266336E-005
	36	69	2.504006	0.0776315	-0.0010216	1	0.0776382	-0.7539458	0.07762	-0.0010216	0.0776267	-0.7540698	-0.0339536	3.526088	11	0.1289526	0.0100117	-327.5556	0.0007969	0.0006453	0.3919125	-11.66487	0.018506	-0.9059626	0.0068879	0.0051099	0.0004013	0.0002474	-0.0008721	-0.0032643	-8.130075E-005	-0.0003008	-0.0002309	0.0009145	1.645088E-005	3.641844E-005	-0.0003159	-0.0001865	-3.409387E-005	-3.939868E-005	1.806393E-005	0.0001795	4.1008E-005	-2.670288E-005	0.0002667	0.0001206	4.076958E-005	-3.230573E-005	0.0001416	-0.0001122	2.741814E-005	-4.446508E-005	-8.504839E-006	-0.000306	-3.719331E-005	-5.614759E-005	0.0004913	-0.0001547	3.051758E-005	-7.116796E-005
	37	72	1.998082	0.0777083	-0.000957	1	0.0777142	-0.7055549	0.0777001	-0.000959	0.077706	-0.7071322	-0.033392	3.526106	11	0.1286071	0.0099946	-327.5556	0.0006499	0.0005771	0.3884699	-11.63371	0.0190527	-0.904407	0.0054934	-0.0044242	0.0002778	-0.0003633	-0.0017334	-0.0013	-0.0001426	-0.0001857	-0.0010656	0.0007716	-4.339219E-005	3.242493E-005	-0.0006258	-0.0003313	-3.552438E-005	-4.881621E-005	-0.0001968	0.0002163	-3.337861E-006	2.145767E-006	-0.000156	0.0005257	2.384186E-007	-4.768373E-007	-0.0001307	0.0002491	1.66893E-006	-4.291535E-006	0.0001341	0.0001356	2.384186E-007	7.390976E-006	-0.0002065	-8.320064E-005	-1.883507E-005	-3.933908E-005
	38	76	1.584686	0.077787	-0.0009361	1	0.0777926	-0.6894523	0.0777754	-0.0009362	0.0777811	-0.6896716	-0.0330825	3.526098	11	0.1284614	0.0099933	-327.5556	0.0004457	0.0004612	0.3885926	-11.6205	0.0193486	-0.9042873	-0.0002978	0.0020578	-0.0001693	2.488494E-005	-0.0033492	0.0017952	-0.0002663	0.0001107	-0.0016914	-0.0020871	-0.0001147	-0.0001933	0.0004036	0.0005616	4.506111E-005	1.358986E-005	0.0002763	0.0001715	3.361702E-005	-7.629396E-006	4.275143E-005	-0.0003204	2.765655E-005	-3.671647E-005	2.962351E-005	-0.0000988	2.336502E-005	-5.24521E-006	9.128451E-005	-0.0003445	-1.335144E-005	-4.279614E-005	5.948916E-005	-0.0002023	6.198883E-006	-5.400182E-005
	39	82	1.266892	0.0778555	-0.0009261	1	0.077861	-0.6814869	0.0778464	-0.000926	0.0778519	-0.6815354	-0.0326883	3.526099	11	0.1284947	0.0100047	-327.5556	0.0017895	0.0017806	0.3967647	-11.62325	0.0201254	-0.9053006	0.0181623	-0.0092103	0.001323	-0.0008578	2.331659E-005	0.000535	4.458427E-005	5.90086E-006	0.0023686	0.001762	0.0002429	6.836653E-005	-0.0013966	0.0023413	-0.000155	0.0001375	-0.0007336	0.0003799	-2.169609E-005	3.802776E-005	-3.192575E-006	0.0007211	8.821487E-006	3.85046E-005	0.0001284	0.0005185	1.740456E-005	1.513958E-005	0.0002125	0.0005486	4.768372E-007	-5.960465E-007	-0.000175	0.0003485	-1.096726E-005	-3.099442E-005
	40	87	0.999041	0.0779709	-0.0009447	1	0.0779766	-0.6941484	0.0779459	-0.000944	0.0779516	-0.6938842	-0.0324925	3.526082	11	0.1280266	0.0099831	-327.5556	0.0015974	0.0016672	0.3971225	-11.58084	0.0200231	-0.9033437	-0.0010167	-4.044386E-005	-0.0002122	-0.0001558	0.0157961	-0.0086132	0.0011892	-0.0007934	-0.0013568	-0.0019443	-8.344651E-005	-0.0002507	0.0017235	-0.0010198	0.0001252	-0.0001699	-0.0018832	0.0009127	-8.273126E-005	3.910065E-005	-0.0011119	-0.0012486	-5.459786E-005	-0.0001292	0.0009395	-0.0002352	7.987022E-005	-3.83854E-005	-0.0001257	0.0002993	-2.002716E-005	3.814697E-006	-0.0002003	-0.0001012	-2.121925E-005	-7.236005E-005
	41	93	0.7923428	0.0780497	-0.0009972	1	0.0780561	-0.7320015	0.0780295	-0.0009958	0.0780358	-0.7311314	-0.0319742	3.526089	11	0.1284328	0.010025	-327.5556	0.0010902	0.0011676	0.4142012	-11.61703	0.0207431	-0.907119	-0.006847	-0.0042632	-0.0006304	-0.0005077	-0.0016493	0.0066274	-0.0001297	0.0004523	-0.0022174	0.005023	-0.0001538	0.0003297	-0.0016448	-0.0011293	-0.0001235	-0.0001248	0.0023681	-0.0005021	0.0002084	-7.081033E-005	0.0014987	0.0020579	0.0001414	9.346008E-005	-0.0010617	0.0004982	-3.886224E-005	3.33786E-006	-0.0003652	-0.0001023	-3.910066E-005	-2.229214E-005	0.0007354	0.0006176	4.339218E-005	-5.841256E-006
	42	101	0.6334459	0.0781437	-0.0010442	1	0.0781507	-0.7655678	0.078123	-0.0010463	0.07813	-0.7673306	-0.0311915	3.526109	11	0.1276518	0.0099761	-327.5556	0.0011511	0.0010699	0.4213948	-11.54604	0.0208726	-0.9026907	0.0077459	0.0010709	0.0004773	-1.066923E-005	0.0019465	-0.0081244	8.201599E-005	-0.0006804	0.0016333	-0.0018854	0.0000985	-0.0001611	0.0029744	0.0047135	0.0002375	0.0002793	-0.0011268	0.0009974	-7.200242E-005	4.780293E-005	-0.0016958	-2.360903E-005	-0.0001493	-1.907349E-006	0.0014546	0.0006426	0.0001469	2.837181E-005	2.916902E-005	-0.0008879	5.483627E-006	-0.0001062	0.0003677	0.0002029	2.622604E-005	-3.814698E-005
	43	110	0.5040323	0.0782425	-0.001132	1	0.0782507	-0.8288819	0.0782136	-0.0011315	0.0782217	-0.8288296	-0.0309415	3.526088	11	0.1278556	0.0100048	-327.5556	0.0020597	0.0021576	0.4305939	-11.56416	0.0205998	-0.9052964	-0.0046421	-0.0044102	-0.0004694	-0.000519	-0.0018513	-0.0139382	-0.0001562	-0.0011981	-0.0101252	0.0055489	-0.000737	0.000346	-0.009131	-0.0070266	-0.0006964	-0.0005981	-0.0035945	0.0011703	-0.0002482	3.373623E-005	-0.0018419	-0.0025591	-0.0001345	-0.0002263	-0.0009311	0.0040686	-5.865098E-005	0.0002691	-0.0006912	-0.0014852	-7.510186E-005	-0.0001605	-0.0043535	0.0002341	-0.0003498	-2.729893E-005
	44	120	0.400641	0.0783765	-0.0012342	1	0.0783862	-0.9021376	0.0783418	-0.0012328	0.0783515	-0.9015344	-0.0303596	3.526093	11	0.1276348	0.0100048	-327.5556	0.0015891	0.0016185	0.4601249	-11.54302	0.0218167	-0.9052689	0.0032619	-0.0014497	0.0001199	-0.0003227	0.0077534	-0.0052931	0.0006127	-0.0005085	-0.0082953	0.0005896	-0.0006118	-4.810096E-005	-0.0056901	0.0008164	-0.0004485	-7.033349E-006	-0.0023405	0.0042292	-0.0001698	0.0002815	-0.0047117	-0.004987	-0.0003531	-0.0004339	-0.0057783	0.0007144	-0.0004277	2.717972E-005	0.0047523	-0.0018355	0.0003724	-0.0001799	0.0012007	-0.0014854	0.0000989	-0.0001791
	45	131	0.316723	0.0785094	-0.0013639	1	0.0785212	-0.995261	0.0784773	-0.0013628	0.0784891	-0.994876	-0.0297906	3.526091	11	0.1273529	0.0099999	-327.5556	0.0018412	0.0017513	0.4736838	-11.51693	0.0214806	-0.9048331	0.0104006	0.0096791	0.0006986	0.0005652	-0.0060509	0.0001702	-0.0004478	-0.0001851	-0.0023419	0.0033237	-0.0001287	0.0001386	-0.0028868	0.0007989	-0.0001993	2.390146E-005	-0.0007927	-0.0078387	-6.723405E-005	-0.000717	-0.0058836	-0.0032178	-0.0004861	-0.000332	-0.0020649	-0.0016573	-0.0001848	-0.0001826	-0.0038864	-0.004395	-0.0003045	-0.0004025	0.0061339	0.0005537	0.0004497	-6.818772E-005
	46	145	0.2520161	0.0786512	-0.0015018	1	0.0786656	-1.093912	0.0786178	-0.0015025	0.0786321	-1.094841	-0.0289355	3.526089	11	0.1271212	0.01	-327.5556	0.0015307	0.0014991	-0.3041787	-11.50167	-0.0428007	-0.9040865	-0.001444	0.0013659	-0.0001807	-0.0001368	-0.0091145	-0.0011567	-0.0006793	-0.000233	-0.0034078	-0.0034069	-0.0002425	-0.0003947	0.0012124	-0.004458	8.72612E-005	-0.00041	0.0018145	0.0084822	0.0002351	0.0005838	-3.444777E-005	0.0030397	-1.66893E-006	0.0001588	-0.0019872	-0.0013778	-0.0001221	-0.0001596	0.0007538	-0.0008244	7.081032E-005	-0.0001043	0.0037552	0.0084595	0.0002899	0.0005676
	47	167	0.2003205	0.0788142	-0.0016816	1	0.0788321	-1.222266	0.078774	-0.0016796	0.0787919	-1.221471	-0.0279736	3.526088	11	0.1269209	0.0100054	-327.5556	0.0018228	0.0016302	-0.1195544	-11.48695	-0.0300133	-0.9050904	0.0099452	0.0081448	0.0007071	0.000397	-0.0003413	-0.0019672	-1.144409E-005	-0.0002947	-0.0032989	0.0067849	-0.0001848	0.0004081	0.00255	-0.0034811	0.0001979	-0.0003442	-0.0075857	0.0016096	-0.0005519	5.722046E-005	-0.001502	0.0090287	-7.891656E-005	0.0006269	0.0041343	0.0023409	0.0003772	0.0001329	-0.0027425	-0.0019192	-0.0001965	-0.0001923	-0.0039968	-0.0002172	-0.0003459	-0.0001189
	48	194	0.1588983	0.0790068	-0.0018904	1	0.0790294	-1.37068	0.0789643	-0.0018894	0.0789869	-1.370683	-0.0269368	3.526083	11	0.126506	0.0099977	-327.5556	0.0013373	0.0011995	0.0526969	-11.4499	-0.018492	-0.9046984	0.0049423	0.0027554	0.0002818	-6.169082E-005	-0.0002878	0.0046293	1.192093E-005	0.0001743	0.0014054	-0.0003535	0.0001307	-0.0001783	-0.0001756	-0.0007082	-9.775163E-006	-0.0001299	-0.0076461	0.0040062	-0.000562	0.0002474	0.0032762	0.0032496	0.0002711	0.0001796	-0.0044603	-0.0050365	-0.0003231	-0.0004544	0.0037896	0.0017413	0.0003068	7.724762E-005	-0.0041738	0.0015572	-0.0003202	4.839897E-005
	49	226	0.1260081	0.0792321	-0.0021277	1	0.0792607	-1.538217	0.0791656	-0.0021264	0.0791942	-1.538602	-0.0263177	3.526088	11	0.1262142	0.0100038	-327.5556	0.0015216	0.0012609	0.1881087	-11.42206	-0.0101993	-0.9053843	0.0076431	0.0083375	0.0005059	0.0002139	-0.0012837	0.0005426	-5.078317E-005	-0.000209	0.0061302	0.0051763	0.0005372	0.0001916	0.0034531	0.0014461	0.0002935	-6.258489E-005	-0.0014344	-0.0007846	-0.0000975	-0.0001812	-0.0008039	0.0007453	-5.483628E-006	-4.99487E-005	-0.0036398	-0.0011277	-0.000258	-0.0001562	0.0056648	0.002972	0.0004578	0.0001479	-0.0056585	0.0015972	-0.0004156	1.204014E-005
	50	257	0.1001603	0.0795021	-0.0024027	1	0.0795384	-1.731044	0.0793905	-0.0023992	0.0794267	-1.730948	-0.0263077	3.526084	11	0.1257533	0.0100022	-327.5556	0.0017261	0.0011887	0.3041987	-11.37782	-0.0037897	-0.9052886	0.0098407	0.0079277	0.0007215	-8.538366E-005	-0.0012318	0.0078666	-2.241135E-005	0.0001891	-0.006313	0.0021636	-0.0004354	-0.0001583	0.0017853	0.0007011	0.0001926	-0.0001952	-0.0027064	0.0043104	-0.0001497	0.0001211	0.0006098	0.0043625	8.34465E-005	0.0001438	-0.0038433	0.0032294	-0.000247	9.465218E-005	-0.0012582	-0.0008733	-8.606912E-005	-0.0002122	0.0009762	0.0063929	0.0001011	0.0003269
	51	305	0.0794492	0.0798267	-0.0027181	1	0.079873	-1.950139	0.0796325	-0.0027097	0.0796786	-1.948881	-0.0264913	3.526084	11	0.1252035	0.0100004	-327.5556	0.0022311	0.0013078	0.4062881	-11.32484	0.0011461	-0.9051301	0.0050823	0.0171344	0.0004232	0.0001959	0.0024367	0.0071193	0.0002673	-0.0001928	0.0026411	0.0108168	0.0002851	0.0003017	0.0038913	0.0043364	0.0003545	-0.0001269	-0.0015259	0.0026616	-1.883507E-005	-0.0001305	-0.0070423	-0.0038641	-0.0005102	-0.0006142	-0.0022833	0.0007242	-0.0001044	-0.0002313	-0.0023775	0.0035346	-0.0001428	2.670288E-005	0.0010766	0.0025085	0.0001335	-5.209447E-005
	52	344	0.0631739	0.0800376	-0.0031007	1	0.0800977	-2.218588	0.079923	-0.003096	0.079983	-2.218357	-0.0240167	3.526081	11	0.1247991	0.0099961	-327.5556	0.0015855	0.0009986	0.5080959	-11.28409	0.0052764	-0.9047298	0.0027071	0.0105496	0.0002038	6.005168E-005	-0.0028143	0.0045497	-0.0001616	-8.207561E-005	-0.0050289	0.0054105	-0.0003073	8.171797E-005	0.0003364	0.0075217	8.845329E-005	0.0003307	-0.0031606	0.0031929	-0.0002196	5.364418E-005	0.000611	-0.000753	6.341934E-005	-0.0002575	-0.0033882	-0.0026433	-0.0002174	-0.0003614	0.0042152	0.0008636	0.0003753	-0.0001024	-0.0017873	-0.0009606	-0.0001163	-0.0002359
	53	394	0.0501337	0.0803062	-0.0035437	1	0.0803844	-2.526706	0.0801989	-0.0035376	0.0802769	-2.525702	-0.02238	3.526074	11	0.1244729	0.0100057	-327.5556	0.0012582	0.0007444	0.6080945	-11.24958	0.0086493	-0.9055688	0.0038448	0.0075278	0.0002582	-0.0001649	0.0017977	0.0057996	0.0002162	3.701448E-005	0.0001634	0.0035338	5.555153E-005	-4.714728E-005	-0.0006611	0.003734	1.740456E-005	1.984835E-005	0.0026491	0.0031318	0.0002639	5.042553E-005	0.0018714	0.0053712	0.0001955	0.0002294	-0.001227	-0.0023131	-6.461144E-005	-0.0003575	0.0006159	0.0023918	7.152557E-005	4.506111E-005	-0.0008466	0.0016951	-6.103517E-005	-2.443791E-005
	54	456	0.0398258	0.0805856	-0.0040887	1	0.0806893	-2.904566	0.0804836	-0.0040803	0.080587	-2.902267	-0.0204653	3.526067	11	0.1239046	0.0099978	-327.5556	0.0012788	0.0005772	0.7085956	-11.19216	0.0110879	-0.9048277	0.0036682	0.0089044	0.0003428	1.984835E-005	0.0005263	0.0067711	0.0001013	8.958578E-005	-0.0022054	0.0021352	-0.0001206	-0.0001279	0.0001563	0.0022375	1.907349E-005	-5.316735E-005	0.0009884	0.004073	0.0001109	0.0001403	-0.0006611	0.0041315	-6.198884E-006	0.0001198	0.0014168	0.0009154	0.0001433	-7.784368E-005	-0.0010199	0.0032946	-4.982949E-005	0.000113	-0.0013503	0.0008402	-8.749963E-005	-8.106233E-005
	55	558	0.0316296	0.0809175	-0.0047409	1	0.0810562	-3.353082	0.0808022	-0.0047294	0.0809405	-3.34971	-0.0182708	3.52606	11	0.123389	0.0100014	-327.5556	0.0013402	0.000537	0.8156333	-11.13808	0.0129936	-0.9051345	0.0030992	0.0095913	0.0002635	-5.900861E-006	1.633633E-005	0.0075492	3.647804E-005	0.000156	1.249462E-005	0.0037265	7.271767E-005	-1.305342E-005	0.0010296	0.0018593	0.0001349	-0.0001017	-0.0007864	0.0009288	-3.170968E-005	-0.0001528	0.0005152	0.002572	8.34465E-005	1.645088E-005	-0.0014696	0.0048892	-5.769731E-005	0.0002378	-0.0007098	0.003148	-3.266336E-005	7.820129E-005	-0.0008486	0.001211	-4.291535E-005	-8.130075E-005
	56	687	0.0251206	0.0813138	-0.0055237	1	0.0815011	-3.886147	0.0811811	-0.0055056	0.0813676	-3.879813	-0.016434	3.526061	11	0.1227001	0.0100002	-327.5556	0.0014802	0.00049	0.9303075	-11.06652	0.0143595	-0.9050011	0.0003935	0.0126373	0.0001132	0.0001464	-0.0017416	0.0056598	-7.271768E-005	-1.960993E-005	-0.0019499	0.0036717	-8.058549E-005	-8.720161E-005	0.0004467	0.0021506	6.41346E-005	-0.000138	-4.338195E-005	0.0034635	3.886223E-005	4.327297E-005	0.0008652	0.0010684	0.0001125	-0.0001438	0.0020927	0.0044093	0.0001917	0.0001497	-0.0025054	0.0022549	-0.0001397	3.933907E-005	-0.0007727	0.001873	-3.218652E-005	-3.898145E-005
	57	808	0.0199553	0.0817328	-0.0064732	1	0.0819887	-4.528316	0.0816101	-0.0064564	0.0818651	-4.523398	-0.0142118	3.526065	11	0.1220189	0.0100042	-327.5556	0.0015118	0.0004449	1.062358	-10.99268	0.0155454	-0.9053412	0.0013666	0.0122416	0.0001285	6.023049E-005	-0.0015595	0.006379	-4.029275E-005	1.263619E-005	-0.0008587	0.0046912	-3.051758E-005	4.23193E-005	0.0011399	0.0047928	0.0001311	0.0001028	0.0009002	0.0030772	0.0001316	3.170967E-005	0.0006964	0.0028015	9.179115E-005	4.768372E-006	0.0014161	0.0011442	0.0001514	-9.250642E-005	0.0020711	0.0029861	0.0001996	7.56979E-005	-0.0001809	0.00131	-7.152558E-007	-7.796289E-005
	58	1011	0.0158522	0.0822411	-0.007606	1	0.0825921	-5.283908	0.0821034	-0.0075818	0.0824528	-5.276016	-0.0122424	3.526052	11	0.1210738	0.0099997	-327.5556	0.0015967	0.0004533	1.207768	-10.89159	0.0163863	-0.9049246	0.0023435	0.0129894	0.0002668	-2.413988E-005	-0.0015997	0.0062632	-5.316735E-005	-5.292893E-005	-0.000871	0.0049665	-1.28746E-005	3.218651E-006	0.0005815	0.0049007	8.08239E-005	7.849932E-005	-0.0010819	0.0048724	-4.720689E-005	0.0001353	-0.0013591	0.0013356	-0.0000958	-0.0001183	-0.0001681	0.0012547	3.147125E-005	-0.0001068	0.0005084	0.0029719	6.866455E-005	7.081032E-005	-0.0006065	0.0008716	-1.549721E-005	-0.0001096
	59	1202	0.0125907	0.0828503	-0.0089569	1	0.0833331	-6.170248	0.0827219	-0.0089289	0.0832024	-6.160614	-0.0099662	3.526053	11	0.1200445	0.0100037	-327.5556	0.0014823	0.0003679	1.369995	-10.77847	0.0168829	-0.9052721	0.0012961	0.0114458	0.0001764	-4.09186E-005	-0.0016954	0.0070573	-6.175042E-005	2.384186E-005	-0.0005949	0.0035786	3.33786E-005	-9.35197E-005	0.0007936	0.0031417	0.0000982	-5.537272E-005	-0.0003898	0.003557	2.121925E-005	2.646446E-005	0.000415	0.0028403	6.818771E-005	-4.768373E-007	-0.0004136	0.0027104	2.0504E-005	3.0756E-005	-0.0023195	0.0035771	-0.000134	0.0001354	-0.0011108	0.0015485	-6.365777E-005	-6.091596E-005
	60	1522	0.0100011	0.0835967	-0.0105159	1	0.0842555	-7.169755	0.0834781	-0.0104844	0.0841339	-7.158568	-0.0076594	3.526049	11	0.1187009	0.0100012	-327.5556	0.0014109	0.0002821	1.543955	-10.63206	0.0172005	-0.9050424	0.000184	0.0114102	0.0001299	-3.311039E-005	-0.0013379	0.0059424	-1.335144E-005	-2.622604E-005	-2.085604E-005	0.0042361	5.531311E-005	-3.296138E-005	-0.0015933	0.0032338	-8.726121E-005	-3.111363E-005	0.0003372	0.0039746	9.489059E-005	8.85725E-005	-0.000486	0.0018293	-1.454353E-005	-5.674363E-005	0.0006789	0.0015156	8.08239E-005	-5.781652E-005	0.000476	0.0022503	5.269051E-005	1.931191E-005	-0.0003284	0.0019645	-1.835823E-005	-2.861023E-006
