EXPLAIN
TAG	EISPOT
TITLE	LABEL	35E_5	Test &Identifier
DATE	LABEL	7/13/2026	Date
TIME	LABEL	10:59:19	Time
NOTES	NOTES	6	&Notes...
	Potentiostatic EIS Data Test preformed on a 30Q battery.
	- 10 AC mV rms preformed on 7/9/26
	- 35E_5
	- Custom Battery Holder Tray. Wood Base w/ reference aligator clips connected to center of banana plug.
	- No Floating Ground
	- No Faraday Cage
PSTAT	PSTAT	REF3000-51199	Potentiostat
VDC	POTEN	0.00000E+000	T	DC &Voltage (V)
FREQINIT	QUANT	1.00000E+004	Initial Fre&q. (Hz)
FREQFINAL	QUANT	1.00000E-002	Final Fre&q. (Hz)
PTSPERDEC	QUANT	1.00000E+001	Points/&decade
VAC	QUANT	1.00000E+001	AC &Voltage (mV rms)
AREA	QUANT	2.54000E+000	&Area (cm^2)
CONDIT	TWOPARAM	F	1.50000E+001	0.00000E+000	Conditionin&g	Time(s)	E(V)
DELAY	TWOPARAM	T	1.80000E+003	0.00000E+000	Init. De&lay	Time(s)	Stab.(mV/s)
SPEED	SELECTOR	1	&Optimize for:
THD	SELECTOR	1	T&HD
DRIFTCOR	SELECTOR	1	&Drift Correction
ZGUESS	QUANT	1.00000E-001	E&stimated Z (ohms)
OCVCURVE	TABLE	718
	Pt	T	Vf	Vm	Ach	Over	Temp
	#	s	V vs. Ref.	V	V	bits	deg C
	0	2.50833	3.53102E+000	3.53102E+000	-3.23560E-004	...........	-327.56
	1	5.01667	3.53102E+000	3.53066E+000	-3.18000E-004	...........	-327.56
	2	7.525	3.53098E+000	3.53054E+000	-3.24507E-004	...........	-327.56
	3	10.0333	3.53089E+000	3.53049E+000	-3.20613E-004	...........	-327.56
	4	12.5417	3.53075E+000	3.53044E+000	-3.23113E-004	...........	-327.56
	5	15.05	3.53062E+000	3.53043E+000	-3.17047E-004	...........	-327.56
	6	17.5583	3.53052E+000	3.53041E+000	-3.19827E-004	...........	-327.56
	7	20.0667	3.53046E+000	3.53041E+000	-3.17393E-004	...........	-327.56
	8	22.575	3.53043E+000	3.53039E+000	-3.17320E-004	...........	-327.56
	9	25.0833	3.53041E+000	3.53039E+000	-3.18693E-004	...........	-327.56
	10	27.5917	3.53040E+000	3.53038E+000	-3.19187E-004	...........	-327.56
	11	30.1	3.53040E+000	3.53038E+000	-3.22993E-004	...........	-327.56
	12	32.6083	3.53039E+000	3.53038E+000	-3.23607E-004	...........	-327.56
	13	35.1167	3.53039E+000	3.53037E+000	-3.20833E-004	...........	-327.56
	14	37.625	3.53038E+000	3.53037E+000	-3.24793E-004	...........	-327.56
	15	40.1333	3.53038E+000	3.53039E+000	-3.17760E-004	...........	-327.56
	16	42.6417	3.53038E+000	3.53038E+000	-3.26687E-004	...........	-327.56
	17	45.15	3.53038E+000	3.53037E+000	-3.18233E-004	...........	-327.56
	18	47.6583	3.53038E+000	3.53036E+000	-3.13880E-004	...........	-327.56
	19	50.1667	3.53038E+000	3.53038E+000	-3.11213E-004	...........	-327.56
	20	52.675	3.53037E+000	3.53036E+000	-3.15753E-004	...........	-327.56
	21	55.1833	3.53037E+000	3.53035E+000	-3.17867E-004	...........	-327.56
	22	57.6917	3.53037E+000	3.53036E+000	-3.11520E-004	...........	-327.56
	23	60.2	3.53036E+000	3.53036E+000	-3.14860E-004	...........	-327.56
	24	62.7083	3.53036E+000	3.53036E+000	-3.20720E-004	...........	-327.56
	25	65.2167	3.53036E+000	3.53034E+000	-3.21460E-004	...........	-327.56
	26	67.725	3.53036E+000	3.53035E+000	-3.22813E-004	...........	-327.56
	27	70.2333	3.53035E+000	3.53035E+000	-3.21267E-004	...........	-327.56
	28	72.7417	3.53035E+000	3.53035E+000	-3.16167E-004	...........	-327.56
	29	75.25	3.53035E+000	3.53035E+000	-3.11267E-004	...........	-327.56
	30	77.7583	3.53035E+000	3.53036E+000	-3.18167E-004	...........	-327.56
	31	80.2667	3.53035E+000	3.53034E+000	-3.15527E-004	...........	-327.56
	32	82.775	3.53035E+000	3.53035E+000	-3.10347E-004	...........	-327.56
	33	85.2833	3.53035E+000	3.53035E+000	-3.11027E-004	...........	-327.56
	34	87.7917	3.53035E+000	3.53034E+000	-3.06607E-004	...........	-327.56
	35	90.3	3.53035E+000	3.53035E+000	-3.05353E-004	...........	-327.56
	36	92.8083	3.53035E+000	3.53034E+000	-3.11753E-004	...........	-327.56
	37	95.317	3.53035E+000	3.53034E+000	-3.08553E-004	...........	-327.56
	38	97.825	3.53035E+000	3.53033E+000	-3.05353E-004	...........	-327.56
	39	100.333	3.53034E+000	3.53033E+000	-3.11347E-004	...........	-327.56
	40	102.842	3.53034E+000	3.53033E+000	-3.05527E-004	...........	-327.56
	41	105.35	3.53034E+000	3.53034E+000	-3.05260E-004	...........	-327.56
	42	107.858	3.53033E+000	3.53034E+000	-3.06180E-004	...........	-327.56
	43	110.367	3.53033E+000	3.53035E+000	-3.05833E-004	...........	-327.56
	44	112.875	3.53034E+000	3.53033E+000	-3.05607E-004	...........	-327.56
	45	115.383	3.53034E+000	3.53033E+000	-3.07813E-004	...........	-327.56
	46	117.892	3.53034E+000	3.53035E+000	-3.06047E-004	...........	-327.56
	47	120.4	3.53034E+000	3.53033E+000	-3.07447E-004	...........	-327.56
	48	122.908	3.53034E+000	3.53032E+000	-3.04673E-004	...........	-327.56
	49	125.417	3.53034E+000	3.53033E+000	-3.07220E-004	...........	-327.56
	50	127.925	3.53034E+000	3.53033E+000	-3.07200E-004	...........	-327.56
	51	130.433	3.53033E+000	3.53032E+000	-3.07500E-004	...........	-327.56
	52	132.942	3.53033E+000	3.53033E+000	-3.11767E-004	...........	-327.56
	53	135.45	3.53033E+000	3.53033E+000	-3.01853E-004	...........	-327.56
	54	137.958	3.53033E+000	3.53034E+000	-3.06987E-004	...........	-327.56
	55	140.467	3.53033E+000	3.53034E+000	-2.98873E-004	...........	-327.56
	56	142.975	3.53033E+000	3.53033E+000	-3.01320E-004	...........	-327.56
	57	145.483	3.53034E+000	3.53032E+000	-2.99420E-004	...........	-327.56
	58	147.992	3.53033E+000	3.53034E+000	-2.98987E-004	...........	-327.56
	59	150.5	3.53033E+000	3.53033E+000	-3.02960E-004	...........	-327.56
	60	153.008	3.53033E+000	3.53033E+000	-2.98980E-004	...........	-327.56
	61	155.517	3.53033E+000	3.53031E+000	-2.96693E-004	...........	-327.56
	62	158.025	3.53033E+000	3.53033E+000	-2.99453E-004	...........	-327.56
	63	160.533	3.53032E+000	3.53032E+000	-2.97327E-004	...........	-327.56
	64	163.042	3.53032E+000	3.53032E+000	-3.00573E-004	...........	-327.56
	65	165.55	3.53032E+000	3.53031E+000	-2.95460E-004	...........	-327.56
	66	168.058	3.53032E+000	3.53032E+000	-2.95993E-004	...........	-327.56
	67	170.567	3.53032E+000	3.53032E+000	-2.95033E-004	...........	-327.56
	68	173.075	3.53032E+000	3.53030E+000	-2.96793E-004	...........	-327.56
	69	175.583	3.53032E+000	3.53030E+000	-3.00560E-004	...........	-327.56
	70	178.092	3.53031E+000	3.53031E+000	-2.97460E-004	...........	-327.56
	71	180.6	3.53031E+000	3.53030E+000	-2.99420E-004	...........	-327.56
	72	183.108	3.53031E+000	3.53030E+000	-2.97280E-004	...........	-327.56
	73	185.617	3.53031E+000	3.53031E+000	-2.95113E-004	...........	-327.56
	74	188.125	3.53030E+000	3.53029E+000	-3.00333E-004	...........	-327.56
	75	190.633	3.53030E+000	3.53030E+000	-3.01540E-004	...........	-327.56
	76	193.142	3.53030E+000	3.53029E+000	-2.99240E-004	...........	-327.56
	77	195.65	3.53030E+000	3.53029E+000	-2.95760E-004	...........	-327.56
	78	198.158	3.53029E+000	3.53030E+000	-2.97947E-004	...........	-327.56
	79	200.667	3.53029E+000	3.53029E+000	-2.99973E-004	...........	-327.56
	80	203.175	3.53029E+000	3.53029E+000	-3.03380E-004	...........	-327.56
	81	205.683	3.53029E+000	3.53030E+000	-3.03313E-004	...........	-327.56
	82	208.192	3.53029E+000	3.53028E+000	-2.94433E-004	...........	-327.56
	83	210.7	3.53029E+000	3.53029E+000	-3.04953E-004	...........	-327.56
	84	213.208	3.53029E+000	3.53030E+000	-3.01213E-004	...........	-327.56
	85	215.717	3.53029E+000	3.53029E+000	-2.98167E-004	...........	-327.56
	86	218.225	3.53029E+000	3.53028E+000	-3.03040E-004	...........	-327.56
	87	220.733	3.53029E+000	3.53030E+000	-3.01260E-004	...........	-327.56
	88	223.242	3.53029E+000	3.53029E+000	-3.03547E-004	...........	-327.56
	89	225.75	3.53029E+000	3.53030E+000	-3.03147E-004	...........	-327.56
	90	228.258	3.53029E+000	3.53030E+000	-2.99180E-004	...........	-327.56
	91	230.767	3.53029E+000	3.53029E+000	-3.03040E-004	...........	-327.56
	92	233.275	3.53030E+000	3.53028E+000	-3.02993E-004	...........	-327.56
	93	235.783	3.53029E+000	3.53028E+000	-3.00620E-004	...........	-327.56
	94	238.292	3.53029E+000	3.53026E+000	-3.07113E-004	...........	-327.56
	95	240.8	3.53028E+000	3.53029E+000	-3.00627E-004	...........	-327.56
	96	243.308	3.53028E+000	3.53028E+000	-3.07567E-004	...........	-327.56
	97	245.817	3.53028E+000	3.53028E+000	-3.02427E-004	...........	-327.56
	98	248.325	3.53028E+000	3.53027E+000	-3.08047E-004	...........	-327.56
	99	250.833	3.53028E+000	3.53028E+000	-3.05067E-004	...........	-327.56
	100	253.342	3.53028E+000	3.53029E+000	-3.01120E-004	...........	-327.56
	101	255.85	3.53028E+000	3.53028E+000	-3.05900E-004	...........	-327.56
	102	258.358	3.53028E+000	3.53027E+000	-3.01720E-004	...........	-327.56
	103	260.867	3.53028E+000	3.53028E+000	-3.03247E-004	...........	-327.56
	104	263.375	3.53028E+000	3.53028E+000	-3.03620E-004	...........	-327.56
	105	265.883	3.53028E+000	3.53027E+000	-3.06913E-004	...........	-327.56
	106	268.392	3.53027E+000	3.53027E+000	-3.03307E-004	...........	-327.56
	107	270.9	3.53027E+000	3.53027E+000	-3.02873E-004	...........	-327.56
	108	273.408	3.53027E+000	3.53027E+000	-3.04940E-004	...........	-327.56
	109	275.917	3.53027E+000	3.53027E+000	-3.08200E-004	...........	-327.56
	110	278.425	3.53027E+000	3.53026E+000	-3.09540E-004	...........	-327.56
	111	280.933	3.53027E+000	3.53026E+000	-3.06173E-004	...........	-327.56
	112	283.442	3.53027E+000	3.53027E+000	-3.04720E-004	...........	-327.56
	113	285.95	3.53027E+000	3.53026E+000	-3.08967E-004	...........	-327.56
	114	288.458	3.53027E+000	3.53026E+000	-3.04060E-004	...........	-327.56
	115	290.967	3.53026E+000	3.53028E+000	-3.11627E-004	...........	-327.56
	116	293.475	3.53027E+000	3.53027E+000	-3.10513E-004	...........	-327.56
	117	295.983	3.53027E+000	3.53026E+000	-3.14147E-004	...........	-327.56
	118	298.492	3.53027E+000	3.53028E+000	-3.10927E-004	...........	-327.56
	119	301	3.53027E+000	3.53028E+000	-3.15067E-004	...........	-327.56
	120	303.508	3.53027E+000	3.53027E+000	-3.15927E-004	...........	-327.56
	121	306.017	3.53027E+000	3.53026E+000	-3.11087E-004	...........	-327.56
	122	308.525	3.53027E+000	3.53026E+000	-3.14353E-004	...........	-327.56
	123	311.033	3.53027E+000	3.53028E+000	-3.14680E-004	...........	-327.56
	124	313.542	3.53027E+000	3.53028E+000	-3.14213E-004	...........	-327.56
	125	316.05	3.53027E+000	3.53027E+000	-3.16187E-004	...........	-327.56
	126	318.558	3.53027E+000	3.53027E+000	-3.17160E-004	...........	-327.56
	127	321.067	3.53027E+000	3.53028E+000	-3.21107E-004	...........	-327.56
	128	323.575	3.53028E+000	3.53027E+000	-3.15907E-004	...........	-327.56
	129	326.083	3.53028E+000	3.53026E+000	-3.15687E-004	...........	-327.56
	130	328.592	3.53027E+000	3.53027E+000	-3.14087E-004	...........	-327.56
	131	331.1	3.53027E+000	3.53027E+000	-3.11613E-004	...........	-327.56
	132	333.608	3.53027E+000	3.53026E+000	-3.10547E-004	...........	-327.56
	133	336.117	3.53027E+000	3.53027E+000	-3.12513E-004	...........	-327.56
	134	338.625	3.53027E+000	3.53027E+000	-3.14073E-004	...........	-327.56
	135	341.133	3.53027E+000	3.53027E+000	-3.15240E-004	...........	-327.56
	136	343.642	3.53027E+000	3.53026E+000	-3.18453E-004	...........	-327.56
	137	346.15	3.53027E+000	3.53026E+000	-3.13527E-004	...........	-327.56
	138	348.658	3.53027E+000	3.53028E+000	-3.13487E-004	...........	-327.56
	139	351.167	3.53027E+000	3.53027E+000	-3.16940E-004	...........	-327.56
	140	353.675	3.53027E+000	3.53027E+000	-3.14047E-004	...........	-327.56
	141	356.183	3.53027E+000	3.53026E+000	-3.13633E-004	...........	-327.56
	142	358.692	3.53027E+000	3.53027E+000	-3.08293E-004	...........	-327.56
	143	361.2	3.53027E+000	3.53027E+000	-3.07353E-004	...........	-327.56
	144	363.708	3.53027E+000	3.53026E+000	-3.11187E-004	...........	-327.56
	145	366.217	3.53027E+000	3.53027E+000	-3.14627E-004	...........	-327.56
	146	368.725	3.53027E+000	3.53027E+000	-3.11073E-004	...........	-327.56
	147	371.233	3.53027E+000	3.53027E+000	-3.12833E-004	...........	-327.56
	148	373.742	3.53027E+000	3.53026E+000	-3.11933E-004	...........	-327.56
	149	376.25	3.53027E+000	3.53027E+000	-3.09940E-004	...........	-327.56
	150	378.758	3.53027E+000	3.53026E+000	-3.16813E-004	...........	-327.56
	151	381.267	3.53027E+000	3.53026E+000	-3.13713E-004	...........	-327.56
	152	383.775	3.53026E+000	3.53027E+000	-3.09280E-004	...........	-327.56
	153	386.283	3.53026E+000	3.53027E+000	-3.09500E-004	...........	-327.56
	154	388.792	3.53026E+000	3.53027E+000	-3.09947E-004	...........	-327.56
	155	391.3	3.53026E+000	3.53026E+000	-3.07053E-004	...........	-327.56
	156	393.808	3.53027E+000	3.53027E+000	-3.12393E-004	...........	-327.56
	157	396.317	3.53027E+000	3.53027E+000	-3.12913E-004	...........	-327.56
	158	398.825	3.53027E+000	3.53026E+000	-3.10713E-004	...........	-327.56
	159	401.333	3.53027E+000	3.53027E+000	-3.04487E-004	...........	-327.56
	160	403.842	3.53027E+000	3.53027E+000	-3.07867E-004	...........	-327.56
	161	406.35	3.53027E+000	3.53026E+000	-3.06700E-004	...........	-327.56
	162	408.858	3.53027E+000	3.53028E+000	-3.07000E-004	...........	-327.56
	163	411.367	3.53027E+000	3.53026E+000	-3.07580E-004	...........	-327.56
	164	413.875	3.53027E+000	3.53027E+000	-3.10380E-004	...........	-327.56
	165	416.383	3.53027E+000	3.53028E+000	-3.09507E-004	...........	-327.56
	166	418.892	3.53027E+000	3.53027E+000	-3.10727E-004	...........	-327.56
	167	421.4	3.53027E+000	3.53027E+000	-3.10087E-004	...........	-327.56
	168	423.908	3.53027E+000	3.53027E+000	-3.06133E-004	...........	-327.56
	169	426.417	3.53027E+000	3.53028E+000	-3.11527E-004	...........	-327.56
	170	428.925	3.53027E+000	3.53029E+000	-3.12747E-004	...........	-327.56
	171	431.433	3.53028E+000	3.53027E+000	-3.10393E-004	...........	-327.56
	172	433.942	3.53028E+000	3.53029E+000	-3.10053E-004	...........	-327.56
	173	436.45	3.53028E+000	3.53028E+000	-3.10473E-004	...........	-327.56
	174	438.958	3.53028E+000	3.53028E+000	-3.12073E-004	...........	-327.56
	175	441.467	3.53028E+000	3.53027E+000	-3.11647E-004	...........	-327.56
	176	443.975	3.53028E+000	3.53027E+000	-3.07700E-004	...........	-327.56
	177	446.483	3.53028E+000	3.53028E+000	-3.10553E-004	...........	-327.56
	178	448.992	3.53028E+000	3.53029E+000	-3.12927E-004	...........	-327.56
	179	451.5	3.53028E+000	3.53028E+000	-3.12107E-004	...........	-327.56
	180	454.008	3.53028E+000	3.53027E+000	-3.11367E-004	...........	-327.56
	181	456.517	3.53028E+000	3.53027E+000	-3.10707E-004	...........	-327.56
	182	459.025	3.53028E+000	3.53028E+000	-3.13527E-004	...........	-327.56
	183	461.533	3.53028E+000	3.53027E+000	-3.17660E-004	...........	-327.56
	184	464.042	3.53027E+000	3.53028E+000	-3.11560E-004	...........	-327.56
	185	466.55	3.53027E+000	3.53027E+000	-3.20860E-004	...........	-327.56
	186	469.058	3.53027E+000	3.53027E+000	-3.11247E-004	...........	-327.56
	187	471.567	3.53027E+000	3.53027E+000	-3.13740E-004	...........	-327.56
	188	474.075	3.53027E+000	3.53028E+000	-3.17053E-004	...........	-327.56
	189	476.583	3.53027E+000	3.53027E+000	-3.14573E-004	...........	-327.56
	190	479.092	3.53027E+000	3.53028E+000	-3.16833E-004	...........	-327.56
	191	481.6	3.53027E+000	3.53028E+000	-3.15813E-004	...........	-327.56
	192	484.108	3.53028E+000	3.53027E+000	-3.17073E-004	...........	-327.56
	193	486.617	3.53028E+000	3.53027E+000	-3.20067E-004	...........	-327.56
	194	489.125	3.53028E+000	3.53027E+000	-3.15853E-004	...........	-327.56
	195	491.633	3.53028E+000	3.53026E+000	-3.20847E-004	...........	-327.56
	196	494.142	3.53027E+000	3.53027E+000	-3.21113E-004	...........	-327.56
	197	496.65	3.53027E+000	3.53027E+000	-3.22607E-004	...........	-327.56
	198	499.158	3.53027E+000	3.53028E+000	-3.20893E-004	...........	-327.56
	199	501.667	3.53027E+000	3.53029E+000	-3.18653E-004	...........	-327.56
	200	504.175	3.53027E+000	3.53028E+000	-3.23507E-004	...........	-327.56
	201	506.683	3.53028E+000	3.53028E+000	-3.23067E-004	...........	-327.56
	202	509.192	3.53028E+000	3.53028E+000	-3.23720E-004	...........	-327.56
	203	511.7	3.53028E+000	3.53028E+000	-3.22453E-004	...........	-327.56
	204	514.208	3.53028E+000	3.53028E+000	-3.22793E-004	...........	-327.56
	205	516.717	3.53028E+000	3.53027E+000	-3.28313E-004	...........	-327.56
	206	519.225	3.53028E+000	3.53027E+000	-3.28273E-004	...........	-327.56
	207	521.733	3.53028E+000	3.53027E+000	-3.27760E-004	...........	-327.56
	208	524.242	3.53027E+000	3.53028E+000	-3.22740E-004	...........	-327.56
	209	526.75	3.53027E+000	3.53027E+000	-3.23093E-004	...........	-327.56
	210	529.258	3.53027E+000	3.53027E+000	-3.27773E-004	...........	-327.56
	211	531.767	3.53027E+000	3.53028E+000	-3.23640E-004	...........	-327.56
	212	534.275	3.53027E+000	3.53027E+000	-3.21193E-004	...........	-327.56
	213	536.783	3.53027E+000	3.53028E+000	-3.27600E-004	...........	-327.56
	214	539.292	3.53027E+000	3.53028E+000	-3.25053E-004	...........	-327.56
	215	541.8	3.53027E+000	3.53029E+000	-3.31333E-004	...........	-327.56
	216	544.308	3.53028E+000	3.53028E+000	-3.28487E-004	...........	-327.56
	217	546.817	3.53028E+000	3.53029E+000	-3.28067E-004	...........	-327.56
	218	549.325	3.53028E+000	3.53029E+000	-3.25860E-004	...........	-327.56
	219	551.833	3.53029E+000	3.53027E+000	-3.24653E-004	...........	-327.56
	220	554.342	3.53029E+000	3.53028E+000	-3.28073E-004	...........	-327.56
	221	556.85	3.53028E+000	3.53028E+000	-3.22707E-004	...........	-327.56
	222	559.358	3.53028E+000	3.53027E+000	-3.24060E-004	...........	-327.56
	223	561.867	3.53028E+000	3.53027E+000	-3.21667E-004	...........	-327.56
	224	564.375	3.53028E+000	3.53027E+000	-3.25280E-004	...........	-327.56
	225	566.883	3.53028E+000	3.53030E+000	-3.20293E-004	...........	-327.56
	226	569.392	3.53027E+000	3.53027E+000	-3.20947E-004	...........	-327.56
	227	571.9	3.53028E+000	3.53028E+000	-3.21413E-004	...........	-327.56
	228	574.408	3.53028E+000	3.53028E+000	-3.15867E-004	...........	-327.56
	229	576.917	3.53028E+000	3.53028E+000	-3.18560E-004	...........	-327.56
	230	579.425	3.53028E+000	3.53028E+000	-3.24513E-004	...........	-327.56
	231	581.933	3.53028E+000	3.53028E+000	-3.19787E-004	...........	-327.56
	232	584.442	3.53028E+000	3.53028E+000	-3.18920E-004	...........	-327.56
	233	586.95	3.53028E+000	3.53029E+000	-3.24127E-004	...........	-327.56
	234	589.458	3.53028E+000	3.53028E+000	-3.21180E-004	...........	-327.56
	235	591.967	3.53028E+000	3.53028E+000	-3.24267E-004	...........	-327.56
	236	594.475	3.53028E+000	3.53027E+000	-3.25773E-004	...........	-327.56
	237	596.983	3.53028E+000	3.53028E+000	-3.19233E-004	...........	-327.56
	238	599.492	3.53028E+000	3.53028E+000	-3.23067E-004	...........	-327.56
	239	602	3.53028E+000	3.53031E+000	-3.23493E-004	...........	-327.56
	240	604.508	3.53028E+000	3.53029E+000	-3.28453E-004	...........	-327.56
	241	607.017	3.53028E+000	3.53028E+000	-3.30127E-004	...........	-327.56
	242	609.525	3.53029E+000	3.53027E+000	-3.27600E-004	...........	-327.56
	243	612.033	3.53029E+000	3.53027E+000	-3.28887E-004	...........	-327.56
	244	614.542	3.53028E+000	3.53028E+000	-3.31967E-004	...........	-327.56
	245	617.05	3.53027E+000	3.53028E+000	-3.29313E-004	...........	-327.56
	246	619.558	3.53027E+000	3.53029E+000	-3.24773E-004	...........	-327.56
	247	622.067	3.53028E+000	3.53028E+000	-3.23607E-004	...........	-327.56
	248	624.575	3.53028E+000	3.53029E+000	-3.31680E-004	...........	-327.56
	249	627.083	3.53028E+000	3.53028E+000	-3.24813E-004	...........	-327.56
	250	629.592	3.53028E+000	3.53027E+000	-3.24073E-004	...........	-327.56
	251	632.1	3.53028E+000	3.53029E+000	-3.28780E-004	...........	-327.56
	252	634.608	3.53028E+000	3.53027E+000	-3.27413E-004	...........	-327.56
	253	637.117	3.53028E+000	3.53028E+000	-3.29320E-004	...........	-327.56
	254	639.625	3.53028E+000	3.53028E+000	-3.29020E-004	...........	-327.56
	255	642.133	3.53028E+000	3.53028E+000	-3.29907E-004	...........	-327.56
	256	644.642	3.53028E+000	3.53028E+000	-3.29507E-004	...........	-327.56
	257	647.15	3.53028E+000	3.53028E+000	-3.22620E-004	...........	-327.56
	258	649.658	3.53028E+000	3.53028E+000	-3.27913E-004	...........	-327.56
	259	652.167	3.53028E+000	3.53028E+000	-3.30120E-004	...........	-327.56
	260	654.675	3.53028E+000	3.53028E+000	-3.24513E-004	...........	-327.56
	261	657.183	3.53028E+000	3.53027E+000	-3.31513E-004	...........	-327.56
	262	659.692	3.53028E+000	3.53028E+000	-3.31267E-004	...........	-327.56
	263	662.2	3.53028E+000	3.53026E+000	-3.34913E-004	...........	-327.56
	264	664.708	3.53027E+000	3.53028E+000	-3.35867E-004	...........	-327.56
	265	667.217	3.53027E+000	3.53027E+000	-3.27927E-004	...........	-327.56
	266	669.725	3.53027E+000	3.53028E+000	-3.31973E-004	...........	-327.56
	267	672.233	3.53027E+000	3.53028E+000	-3.29340E-004	...........	-327.56
	268	674.742	3.53027E+000	3.53028E+000	-3.29853E-004	...........	-327.56
	269	677.25	3.53028E+000	3.53027E+000	-3.31320E-004	...........	-327.56
	270	679.758	3.53028E+000	3.53028E+000	-3.28913E-004	...........	-327.56
	271	682.267	3.53028E+000	3.53027E+000	-3.30193E-004	...........	-327.56
	272	684.775	3.53028E+000	3.53027E+000	-3.26493E-004	...........	-327.56
	273	687.283	3.53028E+000	3.53027E+000	-3.25060E-004	...........	-327.56
	274	689.792	3.53027E+000	3.53027E+000	-3.26840E-004	...........	-327.56
	275	692.3	3.53027E+000	3.53028E+000	-3.24720E-004	...........	-327.56
	276	694.808	3.53027E+000	3.53026E+000	-3.29620E-004	...........	-327.56
	277	697.317	3.53027E+000	3.53028E+000	-3.33620E-004	...........	-327.56
	278	699.825	3.53027E+000	3.53028E+000	-3.32073E-004	...........	-327.56
	279	702.333	3.53027E+000	3.53028E+000	-3.37313E-004	...........	-327.56
	280	704.842	3.53027E+000	3.53028E+000	-3.41433E-004	...........	-327.56
	281	707.35	3.53028E+000	3.53027E+000	-3.36980E-004	...........	-327.56
	282	709.858	3.53028E+000	3.53027E+000	-3.37180E-004	...........	-327.56
	283	712.367	3.53028E+000	3.53028E+000	-3.34593E-004	...........	-327.56
	284	714.875	3.53027E+000	3.53027E+000	-3.33473E-004	...........	-327.56
	285	717.383	3.53027E+000	3.53027E+000	-3.32220E-004	...........	-327.56
	286	719.892	3.53027E+000	3.53028E+000	-3.32920E-004	...........	-327.56
	287	722.4	3.53027E+000	3.53027E+000	-3.36433E-004	...........	-327.56
	288	724.908	3.53027E+000	3.53027E+000	-3.34927E-004	...........	-327.56
	289	727.417	3.53027E+000	3.53027E+000	-3.34660E-004	...........	-327.56
	290	729.925	3.53027E+000	3.53027E+000	-3.33207E-004	...........	-327.56
	291	732.433	3.53027E+000	3.53027E+000	-3.34027E-004	...........	-327.56
	292	734.942	3.53027E+000	3.53027E+000	-3.32653E-004	...........	-327.56
	293	737.45	3.53027E+000	3.53026E+000	-3.36733E-004	...........	-327.56
	294	739.958	3.53027E+000	3.53027E+000	-3.35080E-004	...........	-327.56
	295	742.467	3.53027E+000	3.53028E+000	-3.37413E-004	...........	-327.56
	296	744.975	3.53027E+000	3.53028E+000	-3.35880E-004	...........	-327.56
	297	747.483	3.53027E+000	3.53028E+000	-3.32787E-004	...........	-327.56
	298	749.992	3.53028E+000	3.53028E+000	-3.36727E-004	...........	-327.56
	299	752.5	3.53028E+000	3.53027E+000	-3.39767E-004	...........	-327.56
	300	755.008	3.53028E+000	3.53027E+000	-3.38020E-004	...........	-327.56
	301	757.517	3.53027E+000	3.53028E+000	-3.32593E-004	...........	-327.56
	302	760.025	3.53027E+000	3.53027E+000	-3.33033E-004	...........	-327.56
	303	762.533	3.53027E+000	3.53026E+000	-3.35387E-004	...........	-327.56
	304	765.042	3.53027E+000	3.53027E+000	-3.34180E-004	...........	-327.56
	305	767.55	3.53027E+000	3.53026E+000	-3.32487E-004	...........	-327.56
	306	770.058	3.53027E+000	3.53027E+000	-3.33820E-004	...........	-327.56
	307	772.567	3.53027E+000	3.53027E+000	-3.40587E-004	...........	-327.56
	308	775.075	3.53027E+000	3.53027E+000	-3.32400E-004	...........	-327.56
	309	777.583	3.53027E+000	3.53026E+000	-3.40080E-004	...........	-327.56
	310	780.092	3.53027E+000	3.53025E+000	-3.42413E-004	...........	-327.56
	311	782.6	3.53027E+000	3.53026E+000	-3.43293E-004	...........	-327.56
	312	785.108	3.53026E+000	3.53028E+000	-3.38407E-004	...........	-327.56
	313	787.617	3.53026E+000	3.53027E+000	-3.36713E-004	...........	-327.56
	314	790.125	3.53027E+000	3.53025E+000	-3.38520E-004	...........	-327.56
	315	792.633	3.53027E+000	3.53027E+000	-3.35247E-004	...........	-327.56
	316	795.142	3.53027E+000	3.53027E+000	-3.34627E-004	...........	-327.56
	317	797.65	3.53026E+000	3.53026E+000	-3.36593E-004	...........	-327.56
	318	800.158	3.53026E+000	3.53026E+000	-3.41080E-004	...........	-327.56
	319	802.667	3.53026E+000	3.53027E+000	-3.41080E-004	...........	-327.56
	320	805.175	3.53026E+000	3.53026E+000	-3.39200E-004	...........	-327.56
	321	807.683	3.53026E+000	3.53027E+000	-3.38673E-004	...........	-327.56
	322	810.192	3.53027E+000	3.53027E+000	-3.36407E-004	...........	-327.56
	323	812.7	3.53027E+000	3.53026E+000	-3.42920E-004	...........	-327.56
	324	815.208	3.53027E+000	3.53025E+000	-3.37967E-004	...........	-327.56
	325	817.717	3.53026E+000	3.53027E+000	-3.39907E-004	...........	-327.56
	326	820.225	3.53026E+000	3.53025E+000	-3.41220E-004	...........	-327.56
	327	822.733	3.53026E+000	3.53026E+000	-3.42367E-004	...........	-327.56
	328	825.242	3.53026E+000	3.53025E+000	-3.44713E-004	...........	-327.56
	329	827.75	3.53026E+000	3.53025E+000	-3.49087E-004	...........	-327.56
	330	830.258	3.53026E+000	3.53026E+000	-3.46113E-004	...........	-327.56
	331	832.767	3.53026E+000	3.53027E+000	-3.44433E-004	...........	-327.56
	332	835.275	3.53026E+000	3.53028E+000	-3.43307E-004	...........	-327.56
	333	837.783	3.53026E+000	3.53026E+000	-3.45007E-004	...........	-327.56
	334	840.292	3.53026E+000	3.53027E+000	-3.43507E-004	...........	-327.56
	335	842.8	3.53027E+000	3.53025E+000	-3.43233E-004	...........	-327.56
	336	845.308	3.53027E+000	3.53027E+000	-3.48427E-004	...........	-327.56
	337	847.817	3.53027E+000	3.53026E+000	-3.48093E-004	...........	-327.56
	338	850.325	3.53026E+000	3.53026E+000	-3.47580E-004	...........	-327.56
	339	852.833	3.53026E+000	3.53025E+000	-3.43053E-004	...........	-327.56
	340	855.342	3.53026E+000	3.53026E+000	-3.41267E-004	...........	-327.56
	341	857.85	3.53026E+000	3.53025E+000	-3.47813E-004	...........	-327.56
	342	860.358	3.53026E+000	3.53026E+000	-3.41167E-004	...........	-327.56
	343	862.867	3.53026E+000	3.53025E+000	-3.43887E-004	...........	-327.56
	344	865.375	3.53026E+000	3.53025E+000	-3.38433E-004	...........	-327.56
	345	867.883	3.53025E+000	3.53026E+000	-3.43307E-004	...........	-327.56
	346	870.392	3.53025E+000	3.53026E+000	-3.41507E-004	...........	-327.56
	347	872.9	3.53025E+000	3.53026E+000	-3.40527E-004	...........	-327.56
	348	875.408	3.53026E+000	3.53026E+000	-3.39853E-004	...........	-327.56
	349	877.917	3.53026E+000	3.53025E+000	-3.33880E-004	...........	-327.56
	350	880.425	3.53026E+000	3.53024E+000	-3.36320E-004	...........	-327.56
	351	882.933	3.53026E+000	3.53025E+000	-3.41833E-004	...........	-327.56
	352	885.442	3.53025E+000	3.53025E+000	-3.40880E-004	...........	-327.56
	353	887.95	3.53025E+000	3.53025E+000	-3.38227E-004	...........	-327.56
	354	890.458	3.53025E+000	3.53025E+000	-3.38807E-004	...........	-327.56
	355	892.967	3.53025E+000	3.53026E+000	-3.41420E-004	...........	-327.56
	356	895.475	3.53025E+000	3.53026E+000	-3.43947E-004	...........	-327.56
	357	897.983	3.53025E+000	3.53025E+000	-3.45507E-004	...........	-327.56
	358	900.492	3.53025E+000	3.53025E+000	-3.42393E-004	...........	-327.56
	359	903	3.53026E+000	3.53025E+000	-3.40153E-004	...........	-327.56
	360	905.508	3.53025E+000	3.53026E+000	-3.45093E-004	...........	-327.56
	361	908.017	3.53025E+000	3.53026E+000	-3.42573E-004	...........	-327.56
	362	910.525	3.53026E+000	3.53024E+000	-3.42207E-004	...........	-327.56
	363	913.033	3.53026E+000	3.53025E+000	-3.45540E-004	...........	-327.56
	364	915.542	3.53025E+000	3.53026E+000	-3.47820E-004	...........	-327.56
	365	918.05	3.53025E+000	3.53025E+000	-3.47607E-004	...........	-327.56
	366	920.558	3.53025E+000	3.53024E+000	-3.48767E-004	...........	-327.56
	367	923.067	3.53025E+000	3.53025E+000	-3.48333E-004	...........	-327.56
	368	925.575	3.53025E+000	3.53025E+000	-3.50287E-004	...........	-327.56
	369	928.083	3.53025E+000	3.53025E+000	-3.50153E-004	...........	-327.56
	370	930.592	3.53025E+000	3.53025E+000	-3.52667E-004	...........	-327.56
	371	933.1	3.53025E+000	3.53024E+000	-3.52867E-004	...........	-327.56
	372	935.608	3.53025E+000	3.53025E+000	-3.52733E-004	...........	-327.56
	373	938.117	3.53025E+000	3.53025E+000	-3.49147E-004	...........	-327.56
	374	940.625	3.53025E+000	3.53026E+000	-3.46973E-004	...........	-327.56
	375	943.133	3.53025E+000	3.53026E+000	-3.51660E-004	...........	-327.56
	376	945.642	3.53025E+000	3.53024E+000	-3.51433E-004	...........	-327.56
	377	948.15	3.53025E+000	3.53024E+000	-3.53247E-004	...........	-327.56
	378	950.66	3.53025E+000	3.53027E+000	-3.52913E-004	...........	-327.56
	379	953.17	3.53025E+000	3.53025E+000	-3.53693E-004	...........	-327.56
	380	955.68	3.53025E+000	3.53024E+000	-3.53573E-004	...........	-327.56
	381	958.18	3.53025E+000	3.53026E+000	-3.47580E-004	...........	-327.56
	382	960.69	3.53025E+000	3.53026E+000	-3.49453E-004	...........	-327.56
	383	963.2	3.53025E+000	3.53026E+000	-3.50900E-004	...........	-327.56
	384	965.71	3.53025E+000	3.53025E+000	-3.52933E-004	...........	-327.56
	385	968.22	3.53026E+000	3.53025E+000	-3.50327E-004	...........	-327.56
	386	970.73	3.53026E+000	3.53024E+000	-3.50980E-004	...........	-327.56
	387	973.23	3.53025E+000	3.53026E+000	-3.50953E-004	...........	-327.56
	388	975.74	3.53025E+000	3.53024E+000	-3.50053E-004	...........	-327.56
	389	978.25	3.53025E+000	3.53027E+000	-3.50880E-004	...........	-327.56
	390	980.76	3.53025E+000	3.53027E+000	-3.53880E-004	...........	-327.56
	391	983.27	3.53026E+000	3.53028E+000	-3.48967E-004	...........	-327.56
	392	985.78	3.53026E+000	3.53029E+000	-3.56960E-004	...........	-327.56
	393	988.28	3.53027E+000	3.53027E+000	-3.53627E-004	...........	-327.56
	394	990.79	3.53028E+000	3.53028E+000	-3.48900E-004	...........	-327.56
	395	993.3	3.53028E+000	3.53028E+000	-3.45047E-004	...........	-327.56
	396	995.81	3.53028E+000	3.53028E+000	-3.47387E-004	...........	-327.56
	397	998.32	3.53028E+000	3.53028E+000	-3.45800E-004	...........	-327.56
	398	1000.83	3.53028E+000	3.53028E+000	-3.47493E-004	...........	-327.56
	399	1003.33	3.53028E+000	3.53029E+000	-3.51760E-004	...........	-327.56
	400	1005.84	3.53028E+000	3.53028E+000	-3.49880E-004	...........	-327.56
	401	1008.35	3.53028E+000	3.53027E+000	-3.48653E-004	...........	-327.56
	402	1010.86	3.53028E+000	3.53027E+000	-3.51020E-004	...........	-327.56
	403	1013.37	3.53028E+000	3.53028E+000	-3.55987E-004	...........	-327.56
	404	1015.88	3.53028E+000	3.53028E+000	-3.58173E-004	...........	-327.56
	405	1018.38	3.53027E+000	3.53027E+000	-3.54207E-004	...........	-327.56
	406	1020.89	3.53028E+000	3.53027E+000	-3.55647E-004	...........	-327.56
	407	1023.4	3.53027E+000	3.53024E+000	-3.51153E-004	...........	-327.56
	408	1025.91	3.53027E+000	3.53024E+000	-3.52993E-004	...........	-327.56
	409	1028.42	3.53026E+000	3.53024E+000	-3.56413E-004	...........	-327.56
	410	1030.93	3.53025E+000	3.53024E+000	-3.53920E-004	...........	-327.56
	411	1033.43	3.53024E+000	3.53026E+000	-3.52753E-004	...........	-327.56
	412	1035.94	3.53024E+000	3.53027E+000	-3.49440E-004	...........	-327.56
	413	1038.45	3.53025E+000	3.53024E+000	-3.53887E-004	...........	-327.56
	414	1040.96	3.53025E+000	3.53024E+000	-3.51880E-004	...........	-327.56
	415	1043.47	3.53025E+000	3.53026E+000	-3.49620E-004	...........	-327.56
	416	1045.98	3.53025E+000	3.53024E+000	-3.50493E-004	...........	-327.56
	417	1048.48	3.53025E+000	3.53025E+000	-3.49360E-004	...........	-327.56
	418	1050.99	3.53025E+000	3.53024E+000	-3.50780E-004	...........	-327.56
	419	1053.5	3.53025E+000	3.53024E+000	-3.51853E-004	...........	-327.56
	420	1056.01	3.53025E+000	3.53025E+000	-3.50880E-004	...........	-327.56
	421	1058.52	3.53025E+000	3.53025E+000	-3.53540E-004	...........	-327.56
	422	1061.03	3.53025E+000	3.53025E+000	-3.54060E-004	...........	-327.56
	423	1063.53	3.53025E+000	3.53024E+000	-3.52333E-004	...........	-327.56
	424	1066.04	3.53025E+000	3.53024E+000	-3.52320E-004	...........	-327.56
	425	1068.55	3.53025E+000	3.53025E+000	-3.53000E-004	...........	-327.56
	426	1071.06	3.53025E+000	3.53024E+000	-3.55253E-004	...........	-327.56
	427	1073.57	3.53024E+000	3.53023E+000	-3.55833E-004	...........	-327.56
	428	1076.08	3.53024E+000	3.53025E+000	-3.49680E-004	...........	-327.56
	429	1078.58	3.53024E+000	3.53025E+000	-3.49547E-004	...........	-327.56
	430	1081.09	3.53024E+000	3.53024E+000	-3.55947E-004	...........	-327.56
	431	1083.6	3.53024E+000	3.53024E+000	-3.53007E-004	...........	-327.56
	432	1086.11	3.53024E+000	3.53024E+000	-3.50113E-004	...........	-327.56
	433	1088.62	3.53024E+000	3.53026E+000	-3.54460E-004	...........	-327.56
	434	1091.13	3.53024E+000	3.53027E+000	-3.55760E-004	...........	-327.56
	435	1093.63	3.53025E+000	3.53024E+000	-3.56747E-004	...........	-327.56
	436	1096.14	3.53025E+000	3.53024E+000	-3.52913E-004	...........	-327.56
	437	1098.65	3.53025E+000	3.53025E+000	-3.53713E-004	...........	-327.56
	438	1101.16	3.53025E+000	3.53024E+000	-3.57900E-004	...........	-327.56
	439	1103.67	3.53025E+000	3.53024E+000	-3.56153E-004	...........	-327.56
	440	1106.18	3.53025E+000	3.53025E+000	-3.52100E-004	...........	-327.56
	441	1108.68	3.53025E+000	3.53026E+000	-3.52507E-004	...........	-327.56
	442	1111.19	3.53025E+000	3.53025E+000	-3.52533E-004	...........	-327.56
	443	1113.7	3.53025E+000	3.53024E+000	-3.54293E-004	...........	-327.56
	444	1116.21	3.53025E+000	3.53025E+000	-3.50267E-004	...........	-327.56
	445	1118.72	3.53025E+000	3.53025E+000	-3.52433E-004	...........	-327.56
	446	1121.23	3.53025E+000	3.53025E+000	-3.51047E-004	...........	-327.56
	447	1123.73	3.53025E+000	3.53024E+000	-3.52967E-004	...........	-327.56
	448	1126.24	3.53025E+000	3.53025E+000	-3.56660E-004	...........	-327.56
	449	1128.75	3.53025E+000	3.53024E+000	-3.57213E-004	...........	-327.56
	450	1131.26	3.53025E+000	3.53026E+000	-3.56193E-004	...........	-327.56
	451	1133.77	3.53025E+000	3.53026E+000	-3.56780E-004	...........	-327.56
	452	1136.28	3.53025E+000	3.53025E+000	-3.59753E-004	...........	-327.56
	453	1138.78	3.53025E+000	3.53025E+000	-3.57767E-004	...........	-327.56
	454	1141.29	3.53025E+000	3.53024E+000	-3.55433E-004	...........	-327.56
	455	1143.8	3.53025E+000	3.53024E+000	-3.57247E-004	...........	-327.56
	456	1146.31	3.53025E+000	3.53025E+000	-3.61100E-004	...........	-327.56
	457	1148.82	3.53025E+000	3.53024E+000	-3.56920E-004	...........	-327.56
	458	1151.33	3.53025E+000	3.53024E+000	-3.53700E-004	...........	-327.56
	459	1153.83	3.53024E+000	3.53024E+000	-3.59173E-004	...........	-327.56
	460	1156.34	3.53024E+000	3.53025E+000	-3.59527E-004	...........	-327.56
	461	1158.85	3.53024E+000	3.53024E+000	-3.55627E-004	...........	-327.56
	462	1161.36	3.53024E+000	3.53024E+000	-3.54247E-004	...........	-327.56
	463	1163.87	3.53024E+000	3.53026E+000	-3.56213E-004	...........	-327.56
	464	1166.38	3.53024E+000	3.53023E+000	-3.56640E-004	...........	-327.56
	465	1168.88	3.53024E+000	3.53024E+000	-3.57327E-004	...........	-327.56
	466	1171.39	3.53024E+000	3.53025E+000	-3.60900E-004	...........	-327.56
	467	1173.9	3.53024E+000	3.53023E+000	-3.58567E-004	...........	-327.56
	468	1176.41	3.53024E+000	3.53024E+000	-3.58353E-004	...........	-327.56
	469	1178.92	3.53024E+000	3.53025E+000	-3.59733E-004	...........	-327.56
	470	1181.43	3.53024E+000	3.53026E+000	-3.57200E-004	...........	-327.56
	471	1183.93	3.53024E+000	3.53025E+000	-3.53147E-004	...........	-327.56
	472	1186.44	3.53025E+000	3.53023E+000	-3.57020E-004	...........	-327.56
	473	1188.95	3.53025E+000	3.53025E+000	-3.56960E-004	...........	-327.56
	474	1191.46	3.53025E+000	3.53024E+000	-3.54600E-004	...........	-327.56
	475	1193.97	3.53025E+000	3.53024E+000	-3.60380E-004	...........	-327.56
	476	1196.48	3.53024E+000	3.53023E+000	-3.55700E-004	...........	-327.56
	477	1198.98	3.53024E+000	3.53023E+000	-3.57647E-004	...........	-327.56
	478	1201.49	3.53024E+000	3.53024E+000	-3.57320E-004	...........	-327.56
	479	1204	3.53024E+000	3.53023E+000	-3.56887E-004	...........	-327.56
	480	1206.51	3.53023E+000	3.53024E+000	-3.60073E-004	...........	-327.56
	481	1209.02	3.53023E+000	3.53023E+000	-3.54733E-004	...........	-327.56
	482	1211.53	3.53023E+000	3.53023E+000	-3.58867E-004	...........	-327.56
	483	1214.03	3.53023E+000	3.53025E+000	-3.61427E-004	...........	-327.56
	484	1216.54	3.53023E+000	3.53023E+000	-3.57560E-004	...........	-327.56
	485	1219.05	3.53023E+000	3.53023E+000	-3.52807E-004	...........	-327.56
	486	1221.56	3.53023E+000	3.53024E+000	-3.55340E-004	...........	-327.56
	487	1224.07	3.53023E+000	3.53024E+000	-3.58660E-004	...........	-327.56
	488	1226.58	3.53023E+000	3.53024E+000	-3.57393E-004	...........	-327.56
	489	1229.08	3.53023E+000	3.53023E+000	-3.60640E-004	...........	-327.56
	490	1231.59	3.53024E+000	3.53024E+000	-3.58920E-004	...........	-327.56
	491	1234.1	3.53024E+000	3.53023E+000	-3.63380E-004	...........	-327.56
	492	1236.61	3.53024E+000	3.53024E+000	-3.59447E-004	...........	-327.56
	493	1239.12	3.53024E+000	3.53023E+000	-3.52847E-004	...........	-327.56
	494	1241.63	3.53024E+000	3.53024E+000	-3.61527E-004	...........	-327.56
	495	1244.13	3.53024E+000	3.53024E+000	-3.58427E-004	...........	-327.56
	496	1246.64	3.53024E+000	3.53024E+000	-3.60927E-004	...........	-327.56
	497	1249.15	3.53024E+000	3.53024E+000	-3.62473E-004	...........	-327.56
	498	1251.66	3.53024E+000	3.53024E+000	-3.61360E-004	...........	-327.56
	499	1254.17	3.53024E+000	3.53024E+000	-3.60327E-004	...........	-327.56
	500	1256.68	3.53024E+000	3.53021E+000	-3.61140E-004	...........	-327.56
	501	1259.18	3.53024E+000	3.53022E+000	-3.66367E-004	...........	-327.56
	502	1261.69	3.53023E+000	3.53023E+000	-3.60160E-004	...........	-327.56
	503	1264.2	3.53023E+000	3.53023E+000	-3.58140E-004	...........	-327.56
	504	1266.71	3.53023E+000	3.53023E+000	-3.60373E-004	...........	-327.56
	505	1269.22	3.53023E+000	3.53022E+000	-3.61707E-004	...........	-327.56
	506	1271.73	3.53023E+000	3.53021E+000	-3.61780E-004	...........	-327.56
	507	1274.23	3.53023E+000	3.53024E+000	-3.63787E-004	...........	-327.56
	508	1276.74	3.53023E+000	3.53026E+000	-3.62793E-004	...........	-327.56
	509	1279.25	3.53023E+000	3.53025E+000	-3.62727E-004	...........	-327.56
	510	1281.76	3.53024E+000	3.53022E+000	-3.57767E-004	...........	-327.56
	511	1284.27	3.53024E+000	3.53024E+000	-3.63253E-004	...........	-327.56
	512	1286.78	3.53024E+000	3.53023E+000	-3.55547E-004	...........	-327.56
	513	1289.28	3.53024E+000	3.53022E+000	-3.63927E-004	...........	-327.56
	514	1291.79	3.53023E+000	3.53022E+000	-3.60167E-004	...........	-327.56
	515	1294.3	3.53023E+000	3.53022E+000	-3.59187E-004	...........	-327.56
	516	1296.81	3.53023E+000	3.53023E+000	-3.55427E-004	...........	-327.56
	517	1299.32	3.53022E+000	3.53023E+000	-3.57747E-004	...........	-327.56
	518	1301.83	3.53022E+000	3.53022E+000	-3.58473E-004	...........	-327.56
	519	1304.33	3.53022E+000	3.53022E+000	-3.62220E-004	...........	-327.56
	520	1306.84	3.53022E+000	3.53022E+000	-3.61753E-004	...........	-327.56
	521	1309.35	3.53022E+000	3.53023E+000	-3.59793E-004	...........	-327.56
	522	1311.86	3.53022E+000	3.53023E+000	-3.60947E-004	...........	-327.56
	523	1314.37	3.53022E+000	3.53021E+000	-3.64493E-004	...........	-327.56
	524	1316.88	3.53022E+000	3.53022E+000	-3.59273E-004	...........	-327.56
	525	1319.38	3.53022E+000	3.53024E+000	-3.62287E-004	...........	-327.56
	526	1321.89	3.53022E+000	3.53022E+000	-3.63340E-004	...........	-327.56
	527	1324.4	3.53022E+000	3.53022E+000	-3.63373E-004	...........	-327.56
	528	1326.91	3.53023E+000	3.53023E+000	-3.65153E-004	...........	-327.56
	529	1329.42	3.53023E+000	3.53023E+000	-3.63460E-004	...........	-327.56
	530	1331.93	3.53023E+000	3.53023E+000	-3.60980E-004	...........	-327.56
	531	1334.43	3.53023E+000	3.53023E+000	-3.59007E-004	...........	-327.56
	532	1336.94	3.53023E+000	3.53023E+000	-3.61880E-004	...........	-327.56
	533	1339.45	3.53023E+000	3.53022E+000	-3.57333E-004	...........	-327.56
	534	1341.96	3.53023E+000	3.53020E+000	-3.58140E-004	...........	-327.56
	535	1344.47	3.53023E+000	3.53023E+000	-3.59513E-004	...........	-327.56
	536	1346.98	3.53022E+000	3.53024E+000	-3.59013E-004	...........	-327.56
	537	1349.48	3.53022E+000	3.53020E+000	-3.59173E-004	...........	-327.56
	538	1351.99	3.53022E+000	3.53022E+000	-3.57900E-004	...........	-327.56
	539	1354.5	3.53022E+000	3.53022E+000	-3.59160E-004	...........	-327.56
	540	1357.01	3.53022E+000	3.53023E+000	-3.61367E-004	...........	-327.56
	541	1359.52	3.53022E+000	3.53025E+000	-3.66593E-004	...........	-327.56
	542	1362.03	3.53022E+000	3.53021E+000	-3.62113E-004	...........	-327.56
	543	1364.53	3.53023E+000	3.53022E+000	-3.62460E-004	...........	-327.56
	544	1367.04	3.53023E+000	3.53021E+000	-3.58427E-004	...........	-327.56
	545	1369.55	3.53023E+000	3.53022E+000	-3.57953E-004	...........	-327.56
	546	1372.06	3.53022E+000	3.53022E+000	-3.57613E-004	...........	-327.56
	547	1374.57	3.53022E+000	3.53021E+000	-3.57947E-004	...........	-327.56
	548	1377.08	3.53022E+000	3.53021E+000	-3.55527E-004	...........	-327.56
	549	1379.58	3.53022E+000	3.53021E+000	-3.55267E-004	...........	-327.56
	550	1382.09	3.53022E+000	3.53021E+000	-3.60247E-004	...........	-327.56
	551	1384.6	3.53021E+000	3.53022E+000	-3.60727E-004	...........	-327.56
	552	1387.11	3.53021E+000	3.53021E+000	-3.59487E-004	...........	-327.56
	553	1389.62	3.53021E+000	3.53021E+000	-3.59127E-004	...........	-327.56
	554	1392.13	3.53021E+000	3.53021E+000	-3.58140E-004	...........	-327.56
	555	1394.63	3.53021E+000	3.53023E+000	-3.60447E-004	...........	-327.56
	556	1397.14	3.53021E+000	3.53022E+000	-3.63087E-004	...........	-327.56
	557	1399.65	3.53022E+000	3.53021E+000	-3.60633E-004	...........	-327.56
	558	1402.16	3.53022E+000	3.53022E+000	-3.63727E-004	...........	-327.56
	559	1404.67	3.53022E+000	3.53024E+000	-3.56487E-004	...........	-327.56
	560	1407.18	3.53022E+000	3.53022E+000	-3.63667E-004	...........	-327.56
	561	1409.68	3.53022E+000	3.53023E+000	-3.56700E-004	...........	-327.56
	562	1412.19	3.53023E+000	3.53023E+000	-3.61747E-004	...........	-327.56
	563	1414.7	3.53023E+000	3.53020E+000	-3.58827E-004	...........	-327.56
	564	1417.21	3.53022E+000	3.53023E+000	-3.62747E-004	...........	-327.56
	565	1419.72	3.53022E+000	3.53022E+000	-3.63753E-004	...........	-327.56
	566	1422.23	3.53022E+000	3.53023E+000	-3.61833E-004	...........	-327.56
	567	1424.73	3.53022E+000	3.53022E+000	-3.60620E-004	...........	-327.56
	568	1427.24	3.53022E+000	3.53021E+000	-3.61047E-004	...........	-327.56
	569	1429.75	3.53022E+000	3.53022E+000	-3.58420E-004	...........	-327.56
	570	1432.26	3.53022E+000	3.53023E+000	-3.63127E-004	...........	-327.56
	571	1434.77	3.53022E+000	3.53022E+000	-3.62840E-004	...........	-327.56
	572	1437.28	3.53022E+000	3.53021E+000	-3.62987E-004	...........	-327.56
	573	1439.78	3.53022E+000	3.53023E+000	-3.65473E-004	...........	-327.56
	574	1442.29	3.53022E+000	3.53022E+000	-3.69280E-004	...........	-327.56
	575	1444.8	3.53022E+000	3.53023E+000	-3.65287E-004	...........	-327.56
	576	1447.31	3.53022E+000	3.53022E+000	-3.62860E-004	...........	-327.56
	577	1449.82	3.53022E+000	3.53021E+000	-3.62047E-004	...........	-327.56
	578	1452.33	3.53022E+000	3.53022E+000	-3.61653E-004	...........	-327.56
	579	1454.83	3.53022E+000	3.53022E+000	-3.64640E-004	...........	-327.56
	580	1457.34	3.53022E+000	3.53023E+000	-3.58227E-004	...........	-327.56
	581	1459.85	3.53022E+000	3.53022E+000	-3.63220E-004	...........	-327.56
	582	1462.36	3.53022E+000	3.53022E+000	-3.58767E-004	...........	-327.56
	583	1464.87	3.53022E+000	3.53024E+000	-3.60767E-004	...........	-327.56
	584	1467.38	3.53022E+000	3.53023E+000	-3.61087E-004	...........	-327.56
	585	1469.88	3.53023E+000	3.53022E+000	-3.60847E-004	...........	-327.56
	586	1472.39	3.53023E+000	3.53024E+000	-3.59340E-004	...........	-327.56
	587	1474.9	3.53023E+000	3.53022E+000	-3.56580E-004	...........	-327.56
	588	1477.41	3.53023E+000	3.53023E+000	-3.59847E-004	...........	-327.56
	589	1479.92	3.53023E+000	3.53023E+000	-3.61947E-004	...........	-327.56
	590	1482.43	3.53023E+000	3.53021E+000	-3.58040E-004	...........	-327.56
	591	1484.93	3.53023E+000	3.53023E+000	-3.59000E-004	...........	-327.56
	592	1487.44	3.53022E+000	3.53022E+000	-3.64673E-004	...........	-327.56
	593	1489.95	3.53022E+000	3.53022E+000	-3.59493E-004	...........	-327.56
	594	1492.46	3.53022E+000	3.53020E+000	-3.55800E-004	...........	-327.56
	595	1494.97	3.53022E+000	3.53024E+000	-3.61827E-004	...........	-327.56
	596	1497.48	3.53022E+000	3.53023E+000	-3.58627E-004	...........	-327.56
	597	1499.98	3.53022E+000	3.53023E+000	-3.63413E-004	...........	-327.56
	598	1502.49	3.53022E+000	3.53022E+000	-3.62767E-004	...........	-327.56
	599	1505	3.53023E+000	3.53021E+000	-3.64647E-004	...........	-327.56
	600	1507.51	3.53023E+000	3.53022E+000	-3.60073E-004	...........	-327.56
	601	1510.02	3.53022E+000	3.53023E+000	-3.60793E-004	...........	-327.56
	602	1512.53	3.53022E+000	3.53020E+000	-3.59393E-004	...........	-327.56
	603	1515.03	3.53022E+000	3.53020E+000	-3.59220E-004	...........	-327.56
	604	1517.54	3.53022E+000	3.53021E+000	-3.60513E-004	...........	-327.56
	605	1520.05	3.53021E+000	3.53022E+000	-3.60847E-004	...........	-327.56
	606	1522.56	3.53021E+000	3.53020E+000	-3.60480E-004	...........	-327.56
	607	1525.07	3.53021E+000	3.53021E+000	-3.65140E-004	...........	-327.56
	608	1527.58	3.53021E+000	3.53023E+000	-3.62193E-004	...........	-327.56
	609	1530.08	3.53021E+000	3.53024E+000	-3.66140E-004	...........	-327.56
	610	1532.59	3.53022E+000	3.53021E+000	-3.65747E-004	...........	-327.56
	611	1535.1	3.53022E+000	3.53022E+000	-3.65513E-004	...........	-327.56
	612	1537.61	3.53022E+000	3.53021E+000	-3.63913E-004	...........	-327.56
	613	1540.12	3.53022E+000	3.53022E+000	-3.66127E-004	...........	-327.56
	614	1542.63	3.53022E+000	3.53022E+000	-3.62833E-004	...........	-327.56
	615	1545.13	3.53022E+000	3.53020E+000	-3.62313E-004	...........	-327.56
	616	1547.64	3.53022E+000	3.53023E+000	-3.64807E-004	...........	-327.56
	617	1550.15	3.53021E+000	3.53022E+000	-3.66140E-004	...........	-327.56
	618	1552.66	3.53022E+000	3.53022E+000	-3.65220E-004	...........	-327.56
	619	1555.17	3.53022E+000	3.53021E+000	-3.66107E-004	...........	-327.56
	620	1557.68	3.53022E+000	3.53021E+000	-3.66793E-004	...........	-327.56
	621	1560.18	3.53022E+000	3.53021E+000	-3.64380E-004	...........	-327.56
	622	1562.69	3.53021E+000	3.53021E+000	-3.66553E-004	...........	-327.56
	623	1565.2	3.53021E+000	3.53022E+000	-3.67487E-004	...........	-327.56
	624	1567.71	3.53021E+000	3.53021E+000	-3.61087E-004	...........	-327.56
	625	1570.22	3.53021E+000	3.53022E+000	-3.65227E-004	...........	-327.56
	626	1572.73	3.53021E+000	3.53021E+000	-3.67980E-004	...........	-327.56
	627	1575.23	3.53021E+000	3.53020E+000	-3.66313E-004	...........	-327.56
	628	1577.74	3.53021E+000	3.53021E+000	-3.67693E-004	...........	-327.56
	629	1580.25	3.53021E+000	3.53022E+000	-3.66127E-004	...........	-327.56
	630	1582.76	3.53021E+000	3.53022E+000	-3.67560E-004	...........	-327.56
	631	1585.27	3.53021E+000	3.53021E+000	-3.70320E-004	...........	-327.56
	632	1587.78	3.53021E+000	3.53021E+000	-3.71347E-004	...........	-327.56
	633	1590.28	3.53021E+000	3.53020E+000	-3.70127E-004	...........	-327.56
	634	1592.79	3.53021E+000	3.53021E+000	-3.65580E-004	...........	-327.56
	635	1595.3	3.53021E+000	3.53023E+000	-3.64747E-004	...........	-327.56
	636	1597.81	3.53021E+000	3.53023E+000	-3.65193E-004	...........	-327.56
	637	1600.32	3.53022E+000	3.53021E+000	-3.68673E-004	...........	-327.56
	638	1602.83	3.53022E+000	3.53021E+000	-3.66320E-004	...........	-327.56
	639	1605.33	3.53022E+000	3.53021E+000	-3.68573E-004	...........	-327.56
	640	1607.84	3.53022E+000	3.53023E+000	-3.66000E-004	...........	-327.56
	641	1610.35	3.53022E+000	3.53021E+000	-3.69793E-004	...........	-327.56
	642	1612.86	3.53021E+000	3.53021E+000	-3.73333E-004	...........	-327.56
	643	1615.37	3.53021E+000	3.53021E+000	-3.69280E-004	...........	-327.56
	644	1617.88	3.53021E+000	3.53021E+000	-3.64147E-004	...........	-327.56
	645	1620.38	3.53021E+000	3.53022E+000	-3.68067E-004	...........	-327.56
	646	1622.89	3.53021E+000	3.53020E+000	-3.69207E-004	...........	-327.56
	647	1625.4	3.53021E+000	3.53021E+000	-3.68573E-004	...........	-327.56
	648	1627.91	3.53021E+000	3.53020E+000	-3.67193E-004	...........	-327.56
	649	1630.42	3.53021E+000	3.53021E+000	-3.66753E-004	...........	-327.56
	650	1632.93	3.53021E+000	3.53021E+000	-3.65173E-004	...........	-327.56
	651	1635.43	3.53021E+000	3.53021E+000	-3.67993E-004	...........	-327.56
	652	1637.94	3.53021E+000	3.53022E+000	-3.64247E-004	...........	-327.56
	653	1640.45	3.53021E+000	3.53019E+000	-3.66893E-004	...........	-327.56
	654	1642.96	3.53021E+000	3.53020E+000	-3.66093E-004	...........	-327.56
	655	1645.47	3.53021E+000	3.53020E+000	-3.60447E-004	...........	-327.56
	656	1647.98	3.53020E+000	3.53020E+000	-3.59547E-004	...........	-327.56
	657	1650.48	3.53020E+000	3.53020E+000	-3.62500E-004	...........	-327.56
	658	1652.99	3.53020E+000	3.53021E+000	-3.64153E-004	...........	-327.56
	659	1655.5	3.53020E+000	3.53020E+000	-3.63747E-004	...........	-327.56
	660	1658.01	3.53020E+000	3.53021E+000	-3.63840E-004	...........	-327.56
	661	1660.52	3.53021E+000	3.53021E+000	-3.66020E-004	...........	-327.56
	662	1663.03	3.53021E+000	3.53020E+000	-3.64413E-004	...........	-327.56
	663	1665.53	3.53021E+000	3.53020E+000	-3.62680E-004	...........	-327.56
	664	1668.04	3.53021E+000	3.53021E+000	-3.62993E-004	...........	-327.56
	665	1670.55	3.53021E+000	3.53021E+000	-3.62040E-004	...........	-327.56
	666	1673.06	3.53021E+000	3.53020E+000	-3.62487E-004	...........	-327.56
	667	1675.57	3.53021E+000	3.53021E+000	-3.66247E-004	...........	-327.56
	668	1678.08	3.53021E+000	3.53020E+000	-3.67327E-004	...........	-327.56
	669	1680.58	3.53021E+000	3.53021E+000	-3.63987E-004	...........	-327.56
	670	1683.09	3.53020E+000	3.53021E+000	-3.63553E-004	...........	-327.56
	671	1685.6	3.53021E+000	3.53020E+000	-3.64440E-004	...........	-327.56
	672	1688.11	3.53021E+000	3.53021E+000	-3.69720E-004	...........	-327.56
	673	1690.62	3.53021E+000	3.53021E+000	-3.65287E-004	...........	-327.56
	674	1693.13	3.53021E+000	3.53021E+000	-3.66260E-004	...........	-327.56
	675	1695.63	3.53021E+000	3.53022E+000	-3.70707E-004	...........	-327.56
	676	1698.14	3.53021E+000	3.53021E+000	-3.64873E-004	...........	-327.56
	677	1700.65	3.53021E+000	3.53021E+000	-3.70667E-004	...........	-327.56
	678	1703.16	3.53021E+000	3.53020E+000	-3.69133E-004	...........	-327.56
	679	1705.67	3.53021E+000	3.53021E+000	-3.67460E-004	...........	-327.56
	680	1708.18	3.53021E+000	3.53022E+000	-3.62840E-004	...........	-327.56
	681	1710.68	3.53021E+000	3.53023E+000	-3.65553E-004	...........	-327.56
	682	1713.19	3.53021E+000	3.53022E+000	-3.65913E-004	...........	-327.56
	683	1715.7	3.53021E+000	3.53020E+000	-3.63520E-004	...........	-327.56
	684	1718.21	3.53022E+000	3.53020E+000	-3.65193E-004	...........	-327.56
	685	1720.72	3.53021E+000	3.53020E+000	-3.65120E-004	...........	-327.56
	686	1723.23	3.53021E+000	3.53020E+000	-3.64980E-004	...........	-327.56
	687	1725.73	3.53020E+000	3.53021E+000	-3.66087E-004	...........	-327.56
	688	1728.24	3.53020E+000	3.53021E+000	-3.70887E-004	...........	-327.56
	689	1730.75	3.53020E+000	3.53019E+000	-3.67480E-004	...........	-327.56
	690	1733.26	3.53020E+000	3.53021E+000	-3.71693E-004	...........	-327.56
	691	1735.77	3.53020E+000	3.53021E+000	-3.67580E-004	...........	-327.56
	692	1738.28	3.53020E+000	3.53021E+000	-3.72667E-004	...........	-327.56
	693	1740.78	3.53020E+000	3.53020E+000	-3.69773E-004	...........	-327.56
	694	1743.29	3.53020E+000	3.53021E+000	-3.69633E-004	...........	-327.56
	695	1745.8	3.53020E+000	3.53021E+000	-3.67547E-004	...........	-327.56
	696	1748.31	3.53021E+000	3.53021E+000	-3.61787E-004	...........	-327.56
	697	1750.82	3.53021E+000	3.53021E+000	-3.61527E-004	...........	-327.56
	698	1753.33	3.53021E+000	3.53022E+000	-3.66553E-004	...........	-327.56
	699	1755.83	3.53021E+000	3.53021E+000	-3.64820E-004	...........	-327.56
	700	1758.34	3.53021E+000	3.53019E+000	-3.67027E-004	...........	-327.56
	701	1760.85	3.53021E+000	3.53022E+000	-3.68920E-004	...........	-327.56
	702	1763.36	3.53021E+000	3.53019E+000	-3.72733E-004	...........	-327.56
	703	1765.87	3.53021E+000	3.53020E+000	-3.68607E-004	...........	-327.56
	704	1768.38	3.53021E+000	3.53020E+000	-3.73287E-004	...........	-327.56
	705	1770.88	3.53020E+000	3.53020E+000	-3.67333E-004	...........	-327.56
	706	1773.39	3.53020E+000	3.53020E+000	-3.67900E-004	...........	-327.56
	707	1775.9	3.53020E+000	3.53024E+000	-3.63933E-004	...........	-327.56
	708	1778.41	3.53021E+000	3.53024E+000	-3.67047E-004	...........	-327.56
	709	1780.92	3.53021E+000	3.53023E+000	-3.66107E-004	...........	-327.56
	710	1783.43	3.53023E+000	3.53025E+000	-3.64820E-004	...........	-327.56
	711	1785.93	3.53023E+000	3.53022E+000	-3.65567E-004	...........	-327.56
	712	1788.44	3.53024E+000	3.53023E+000	-3.68080E-004	...........	-327.56
	713	1790.95	3.53024E+000	3.53025E+000	-3.67773E-004	...........	-327.56
	714	1793.46	3.53024E+000	3.53024E+000	-3.64647E-004	...........	-327.56
	715	1795.97	3.53024E+000	3.53024E+000	-3.62193E-004	...........	-327.56
	716	1798.48	3.53024E+000	3.53025E+000	-3.65193E-004	...........	-327.56
	717	1800.98	3.53024E+000	3.53023E+000	-3.63520E-004	...........	-327.56
EOC	QUANT	3.530241	Open Circuit (V)
PSTATMODEL	IQUANT	5	Pstat Model
PSTATSECTION	LABEL	REF3000-51199	Pstat Section
PSTATSERIALNO	LABEL	51199	Pstat Serial Number
CTRLMODE	IQUANT	1	Control Mode
ELECTROMETER	IQUANT	0	RE=0 or CS=1
IESTAB	IQUANT	0	I/E Stability
CASPEED	IQUANT	3	Control Amp Speed
CONVENTION	IQUANT	1	Current Convention
ICHRANGE	IQUANT	2	Ich Range
ICHRANGEMODE	TOGGLE	F	Ich Auto Range
ICHOFFSETENABLE	TOGGLE	T	Ich Offset Enable
ICHOFFSET	QUANT	0	Ich Offset (V)
ICHFILTER	IQUANT	3	Ich Filter
VCHRANGE	IQUANT	2	Vch Range
VCHRANGEMODE	TOGGLE	F	Vch Auto Range
VCHOFFSETENABLE	TOGGLE	T	Vch Offset Enable
VCHOFFSET	QUANT	0	Vch Offset (V)
VCHFILTER	IQUANT	3	Vch Filter
ACHRANGE	IQUANT	2	Ach Range
ACHOFFSETENABLE	TOGGLE	F	Ach Offset Enable
ACHOFFSET	QUANT	0	Ach Offset (V)
ACHFILTER	IQUANT	1	Ach Filter
IERANGELOWERLIMIT	IQUANT	2	I/E Range Lower Limit
IERANGEMODE	TOGGLE	F	I/E AutoRange
IERANGE	IQUANT	12	I/E Range
POSFEEDENABLE	TOGGLE	F	Positive Feedback IR Comp
POSFEEDRESISTANCE	QUANT	0	Positive Feedback Resistance (ohm)
ACHSELECT	IQUANT	4	Ach Select
SENSECABLEID	IQUANT	14	Sense Cable ID
PWRCABLEID	IQUANT	7	Power Cable ID
DCCALDATE	LABEL	1/28/2026	DC Calibration Date
ACCALDATE	LABEL	1/28/2026	AC Calibration Date
THERMOSELECT	IQUANT	1	Thermo Select
FRAMEWORKVERSION	LABEL	7.11.0	Framework Version
INSTRUMENTVERSION	LABEL	5.20	Instrument Version
COMMVERSION	LABEL	5.10	Communications Version
CPUPLDVERSION	LABEL	6.00	CPU PLD Version
CTRLPLDVERSION	LABEL	3.21	CTRL PLD Version
PSTATPLDVERSION	LABEL	0.00	PSTAT PLD Version
COMPLIANCEVOLTAGE	IQUANT	0	Compliance Voltage
ZCURVE	TABLE
	Pt	Time	Freq	Zreal	Zimag	Zsig	Zmod	Zphz	ZrealDrCor	ZimagDrCor	ZmodDrCor	ZphzDrCor	Idc	Vdc	IERange	Imod	Vmod	Temp	Ithd	Vthd	IHr1	IHi1	VHr1	VHi1	IHr2	IHi2	VHr2	VHi2	IHr3	IHi3	VHr3	VHi3	IHr4	IHi4	VHr4	VHi4	IHr5	IHi5	VHr5	VHi5	IHr6	IHi6	VHr6	VHi6	IHr7	IHi7	VHr7	VHi7	IHr8	IHi8	VHr8	VHi8	IHr9	IHi9	VHr9	VHi9	IHr10	IHi10	VHr10	VHi10
	#	s	Hz	ohm	ohm	V	ohm	deg	ohm	ohm	ohm	deg	A	V	#	A	V	degC	#	#	A	A	V	V	A	A	V	V	A	A	V	V	A	A	V	V	A	A	V	V	A	A	V	V	A	A	V	V	A	A	V	V	A	A	V	V	A	A	V	V
	0	1	10078.13	0.0431586	0.0418532	1	0.0601195	44.12026	0.0431586	0.0418532	0.0601195	44.12026	-0.0692952	3.526487	12	0.1876706	0.0112809	-327.5556	0.1180161	0.2262813	-4.903793	16.26275	-0.8897457	0.5008507	1.076687	0.9400516	-0.019449	0.1315	1.007335	-0.7759408	0.1444492	0.0696884	0.2656623	0.4920944	-0.0547478	0.070204	0.1784171	-0.028854	0.0179443	0.0295901	0.0068247	0.0897188	-0.0181224	0.0084453	0.0286152	0.0142476	-0.0009294	0.0081422	0.0192035	-0.0357953	0.0114036	0.0019156	0.0256471	0.0268996	-0.0050702	0.0105159	0.0296781	-0.0180112	0.008646	0.0071802
	1	3	8015.625	0.0417899	0.0337294	1	0.0537035	38.90767	0.0417899	0.0337294	0.0537035	38.90767	-0.0665532	3.526504	12	0.1803779	0.009686	-327.5556	0.1179126	0.21249	16.19141	2.091572	0.6084535	0.6311409	-1.246934	-0.5902118	-0.0217344	-0.1072936	1.086218	0.5509592	0.0064046	0.128596	0.4780619	0.2248069	0.0013022	0.0698803	-0.1366136	-0.1007459	0.0058247	-0.0262277	-0.0683368	-0.0292768	0.0003138	-0.0136591	0.0193704	0.0261049	-0.0037842	0.0058091	-0.0292118	-0.03532	0.0054038	-0.0093467	-0.023223	-0.0304407	0.0052254	-0.0081605	0.0177463	0.0279272	-0.0059533	0.0072193
	2	5	6328.125	0.040699	0.0268139	1	0.048738	33.3783	0.040699	0.0268139	0.048738	33.3783	-0.065074	3.526496	12	0.2410773	0.0117489	-327.5556	0.1013823	0.1849156	0.2922507	-21.81787	0.5940201	-0.8820056	1.121998	0.3342043	0.0337038	0.0727322	-0.2929617	1.669467	-0.1383176	0.0601675	0.64908	0.0285363	0.0323268	0.063704	-0.0103335	0.4055096	-0.0481353	0.0224741	0.234268	-0.0337291	0.0191617	0.0304174	-8.483977E-005	0.0666393	-0.0104325	0.0044498	0.0213938	-0.0181422	0.00459	0.0024337	-0.0037322	0.012496	-0.0029097	0.0005335	-0.0444742	0.0014981	-0.0039012	-0.0095394
	3	7	5015.625	0.0399412	0.0211719	1	0.0452057	27.92704	0.0399412	0.0211719	0.0452057	27.92704	-0.0630596	3.526523	12	0.2455742	0.0111009	-327.5556	0.0982735	0.1669028	22.09052	-2.457876	0.9352719	0.3671086	-1.088954	-0.1235421	-0.0421773	-0.0504174	1.684393	-0.246666	0.0931525	0.0900297	0.5840706	-0.2624956	0.0497947	0.0324326	-0.3656767	0.2355857	-0.0421075	-0.0220475	-0.1604843	0.1937124	-0.0308046	-0.0070024	0.0476434	-0.061165	0.0106227	0.0024326	-0.0023407	-0.0408346	0.0057548	-0.0031915	-0.006064	0.0088836	-0.0019794	-0.0005903	0.017061	-0.0383667	0.0079172	0.0004005
	4	9	3984.375	0.0394582	0.0165441	1	0.0427862	22.74743	0.0394582	0.0165441	0.0427862	22.74743	-0.0619609	3.52651	12	0.2606381	0.0111514	-327.5556	0.0932621	0.1475277	18.12779	15.09584	0.4673613	0.8945875	0.235565	-0.979452	0.0425799	-0.0331504	-1.203936	1.270243	-0.1155768	-0.0024844	-0.6154007	0.1887594	-0.0411297	-0.0299501	0.4695761	0.1649066	0.0110023	0.0445852	0.1940132	0.2134715	-0.0092204	0.0288795	-0.0001481	-0.1048397	0.0110152	-0.0059361	0.0152544	-0.0693304	0.0093517	-0.0021663	-0.0136833	0.0015819	-0.0008013	-0.0017759	0.0206302	0.0255453	-0.0024943	0.0044978
	5	11	3170.956	0.0391917	0.0127406	1	0.0412106	18.00848	0.0391917	0.0127406	0.0412106	18.00848	-0.0614738	3.526474	12	0.2665016	0.0109825	-327.5556	0.0894742	0.1305535	-12.59417	20.57202	-0.7546221	0.6470144	-0.0360621	0.9401346	-0.0267117	0.0374967	1.593078	0.6573672	0.0420089	0.0911124	-0.435015	0.4741875	-0.0443161	-0.000766	0.1822737	0.4865183	-0.0219637	0.0345783	-0.3081249	0.006914	-0.0156781	-0.0225148	-0.0601761	0.1004458	-0.011735	7.224083E-005	-0.0745349	-0.0565301	0.0015316	-0.010066	-0.0167463	-0.0023732	-0.0008352	-0.0017171	-0.0298898	0.004492	-0.0020666	-0.0032811
	6	13	2527.573	0.0391192	0.0096023	1	0.0402805	13.79135	0.0391192	0.0096023	0.0402805	13.79135	-0.0598771	3.526506	12	0.2687735	0.0108262	-327.5556	0.085444	0.1150313	-21.37414	-11.61593	-0.7254468	-0.6587	0.0287855	-0.8562944	0.0192363	-0.0336759	0.5100939	-1.585916	0.0718114	-0.0493465	-0.3493665	0.5223451	-0.0370556	0.0081148	-0.4452371	0.2925464	-0.0352166	-0.0095088	0.3054253	-0.0949349	0.0201523	0.0139496	0.128383	0.0220826	0.0046051	0.010006	-0.10473	-0.0275213	-0.0030444	-0.0096265	-0.007162	-0.0169501	0.0011952	-0.0015883	0.0298704	-0.0091451	0.0024542	0.002326
	7	15	1976.103	0.0391921	0.0067948	1	0.0397768	9.83572	0.0391921	0.0067948	0.0397768	9.83572	-0.0592089	3.526485	12	0.2693796	0.010715	-327.5556	0.0806389	0.1000197	24.29908	-2.002585	0.966021	0.0856419	-0.6613542	-0.4085914	-0.01949	-0.0267999	1.521236	0.3676016	0.0521541	0.0531052	0.6142718	-0.0519576	0.0274693	0.0179646	-0.5095001	0.1517322	-0.0282329	-0.0142527	-0.2748157	0.1913793	-0.0213411	-0.0047743	0.1041252	-0.0917909	0.0098844	0.001544	0.0449354	-0.118396	0.009595	-0.0028529	-0.0124646	0.0190347	-0.0019476	0.0001123	0.0309732	0.0180297	0.0001371	0.0032918
	8	17	1577.524	0.0393949	0.0046739	1	0.0396712	6.766144	0.0393949	0.0046739	0.0396712	6.766144	-0.0578453	3.526506	12	0.2649363	0.0105103	-327.5556	0.0758911	0.0880601	2.939754	23.79842	0.0053491	0.951269	0.5766116	0.3952926	0.0177119	0.0226809	0.2976855	-1.403768	0.0399343	-0.0495806	0.581023	-0.0977981	0.0263438	0.0114853	-0.2142163	-0.4651629	0.0064385	-0.0265126	0.2345523	-0.2425933	0.0196269	-0.0011745	-0.1151732	-0.0773851	-0.0015621	-0.0085678	0.0098672	-0.1374678	0.0075372	-0.0057476	-0.0219439	-0.0046724	-0.0007627	-0.0014782	-0.0397681	-0.0139094	-0.0010262	-0.0031507
	9	19	1265.625	0.0396839	0.0029421	1	0.0397928	4.240103	0.0396839	0.0029421	0.0397928	4.240103	-0.0573562	3.52648	12	0.2615616	0.0104082	-327.5556	0.0698772	0.076889	-23.48824	2.95875	-0.9407748	0.0489204	-0.4396723	-0.3915042	-0.0136058	-0.0194727	-1.23126	-0.3872528	-0.0421662	-0.0344644	0.5676345	-0.0483586	0.0236912	0.0101573	0.4547361	-0.1723357	0.0232594	0.0052146	-0.2547591	0.2308911	-0.0179865	0.0014291	-0.0806612	0.1117816	-0.0076251	0.0017644	0.01854	-0.1498493	0.0071788	-0.0056651	0.0058346	-0.0222175	0.00125	-0.0008912	0.042333	0.0258772	0.0005929	0.0032659
	10	20	998.264	0.0400684	0.0013746	1	0.040092	1.964799	0.0400684	0.0013746	0.040092	1.964799	-0.0563577	3.526501	12	0.2568908	0.0102992	-327.5556	0.0628471	0.0662259	-23.16682	-1.978013	-0.9255937	-0.1106257	-0.1649871	-0.4439181	-0.0034809	-0.0185323	-0.5571636	-0.977082	-0.0102553	-0.0449085	0.3249313	0.406229	0.0063306	0.0214937	0.3213536	0.3270792	0.0059078	0.0198326	-0.2740211	-0.2029464	-0.0060098	-0.0151087	-0.1110195	-0.0779648	-0.0021488	-0.0064187	0.1532667	0.0542624	0.0046976	0.0075109	0.0196728	0.0138594	0.0002234	0.0015323	-0.055641	0.0157379	-0.0030713	-0.0016835
	11	22	796.875	0.0405204	0.0001137	1	0.0405206	0.1607033	0.0405204	0.0001137	0.0405206	0.1607033	-0.0553717	3.526507	12	0.251719	0.0101998	-327.5556	0.0559744	0.0568341	13.03613	18.68487	0.5264156	0.758384	0.3938923	-0.0418815	0.0157991	2.408028E-005	-0.7645101	-0.5800489	-0.0245106	-0.0297821	-0.0890614	-0.4549136	0.002383	-0.018992	-0.2334988	0.3513566	-0.0148748	0.010021	-0.3146941	0.0877241	-0.0142961	-0.0027239	0.1127793	0.0715061	0.0028262	0.0055962	0.0592478	0.1514737	-0.0017586	0.0077436	0.0148385	-0.0197256	0.0011857	-0.0003357	0.0484945	-0.0404779	0.0034369	-4.458428E-005
	12	24	627.7902	0.0410887	-0.0010179	1	0.0411013	-1.419094	0.0410887	-0.0010179	0.0411013	-1.419094	-0.0551194	3.526486	12	0.2472459	0.0101621	-327.5556	0.0486792	0.0478653	4.587281	21.90293	0.2110686	0.8952253	0.2361953	0.2258132	0.0088848	0.0096242	0.3062474	-0.7356311	0.0167749	-0.0266752	0.4058393	-0.0091968	0.0159521	0.003431	-0.1450145	-0.3406507	-0.0014298	-0.0152814	0.2030848	-0.2293348	0.0115066	-0.0059018	-0.1163919	-0.0472168	-0.0038738	-0.0040765	-0.0208289	-0.1667469	0.0028884	-0.0072019	-0.0222568	0.0043812	-0.0008588	-0.0002702	-0.0626929	-0.0283149	-0.0018123	-0.0029504
	13	25	505.5147	0.0416688	-0.0018815	1	0.0417112	-2.585423	0.0416688	-0.0018815	0.0417112	-2.585423	-0.0539305	3.526516	12	0.2422266	0.0101036	-327.5556	0.0422452	0.0406219	0.5309185	-21.91742	-0.0193532	-0.9142655	0.0741943	0.2555061	0.0025244	0.0103376	-0.6124384	0.2540142	-0.0252831	0.0071442	0.1834611	0.2934963	0.0050992	0.012826	-0.2498228	0.2082405	-0.0117934	0.0057389	0.2163452	0.1746707	0.0064661	0.0094166	-0.0622996	0.0970349	-0.003902	0.0029011	0.1528411	0.0505564	0.0051992	0.0046206	-0.0066004	0.0203229	-0.0006599	0.0006881	0.0682346	-0.0140342	0.0031197	0.0008688
	14	27	397.9953	0.0423773	-0.0027034	1	0.0424634	-3.65011	0.0423773	-0.0027034	0.0424634	-3.65011	-0.0537703	3.52649	12	0.2372614	0.0100749	-327.5556	0.0356023	0.0334921	18.21831	-11.3686	0.7411997	-0.5311723	-0.2131106	-0.0377499	-0.0087404	-0.0016243	0.4740248	-0.2404576	0.0194252	-0.008225	0.1039177	-0.2689115	0.0054356	-0.0102062	0.0856612	0.2582751	0.0015104	0.0105464	0.2168368	0.1136089	0.0075209	0.0063704	-0.0984551	0.0206822	-0.0039465	-0.0002912	-0.0802356	0.1281893	-0.0047302	0.0038992	-0.0001178	-0.0168179	0.0002789	-0.0008254	-0.060092	-0.0345379	-0.0019506	-0.0025578
	15	29	315.5048	0.0431405	-0.0033621	1	0.0432713	-4.456208	0.0431405	-0.0033621	0.0432713	-4.456208	-0.0533452	3.526488	12	0.2322039	0.0100478	-327.5556	0.0296741	0.0275832	9.8478	18.5667	0.487385	0.7677882	0.1612529	0.0608111	0.0066278	0.0023127	-0.074737	-0.4180183	-0.0025712	-0.0168719	0.1640679	-0.1724912	0.0070407	-0.0064588	-0.2199479	-0.0332886	-0.0086033	-0.0024536	-0.1017853	-0.1793661	-0.002894	-0.0076118	-0.0361587	0.0775409	-0.0020895	0.0027435	-0.1301798	0.0351542	-0.0055606	0.0001035	0.0094649	0.0114116	0.0002775	0.0005071	0.0084955	0.0665758	-0.0004978	0.0027659
	16	30	252.4038	0.0439389	-0.0038924	1	0.0441109	-5.06238	0.0439389	-0.0038924	0.0441109	-5.06238	-0.0532405	3.52646	12	0.227368	0.0100294	-327.5556	0.0246854	0.0225797	-16.42848	-12.39356	-0.7701512	-0.4805138	0.1251938	-0.0642367	0.0051749	-0.0027843	0.3335555	0.0518168	0.0136321	0.0022218	-0.1532783	-0.121755	-0.0059968	-0.0049813	-0.0617879	-0.1719496	-0.0017563	-0.0070105	-0.0221676	0.1734817	-0.0015252	0.0067418	-0.0407227	0.0533328	-0.0019238	0.0017765	0.1074421	-0.0487755	0.0044539	-0.0012137	0.0086107	0.002198	0.0002265	0.000183	-0.0537541	-0.0252161	-0.0018411	-0.0015479
	17	32	198.6229	0.0448379	-0.0043271	1	0.0450462	-5.512322	0.0448379	-0.0043271	0.0450462	-5.512322	-0.0525668	3.526469	12	0.2222801	0.0100129	-327.5556	0.0198648	0.0178325	7.189365	-18.79007	0.2409596	-0.8736408	-0.0566661	0.0944462	-0.0020256	0.0041746	-0.1534622	-0.2106372	-0.0065262	-0.0084639	-0.1466809	0.0534689	-0.0059066	0.0020957	-0.0096053	-0.1430322	-0.0001876	-0.0057857	-0.1404751	-0.0186062	-0.0054705	-0.0010691	0.0226016	-0.0498544	0.0011109	-0.0018785	-0.0773749	-0.0572394	-0.0027043	-0.0024014	0.0054969	-0.0060449	0.0002348	-0.0002167	-0.0268347	-0.0402482	-0.000879	-0.0016854
	18	34	158.3615	0.0457303	-0.0046438	1	0.0459655	-5.79834	0.0457303	-0.0046438	0.0459655	-5.79834	-0.051567	3.526494	12	0.2176946	0.0100064	-327.5556	0.0161125	0.014441	-10.481	16.68458	-0.401754	0.8116946	-0.070964	0.0500025	-0.0029364	0.0024433	-0.0015857	0.2068985	0.000232	0.0086641	-0.109279	-0.0563092	-0.0045288	-0.0021882	-0.0969044	0.0626766	-0.0039508	0.0025136	-0.0174137	-0.1099495	-0.0005319	-0.0043669	-0.0400092	-0.014351	-0.0015026	-0.0005844	0.0542691	-0.0565258	0.0023074	-0.0020909	-0.0019552	-0.006858	-1.049042E-005	-0.0002751	0.0402734	-0.0003312	0.0015416	0.0001423
	19	36	125.558	0.0466672	-0.0048624	1	0.0469198	-5.948306	0.0466672	-0.0048624	0.0469198	-5.948306	-0.0499055	3.526554	12	0.2131234	0.0099997	-327.5556	0.0129528	0.0115259	-8.126474	17.4944	-0.2941206	0.8559471	-0.0419677	0.0523919	-0.0017841	0.0024124	0.0519161	0.1542291	0.002387	0.0064218	-0.0959251	-0.0030633	-0.0039561	0.0001502	-0.0392656	0.0858759	-0.0017612	0.0036128	-0.0636911	-0.0587709	-0.0025125	-0.0023713	-0.0318715	0.0151768	-0.0012338	0.000556	-0.0064958	-0.0597201	-0.000103	-0.0024066	-0.0037085	-0.0021077	1.072884E-006	-0.000119	0.0150943	-0.0264726	0.0006479	-0.0010252
	20	37	100.4464	0.0475923	-0.0049657	1	0.0478507	-5.95659	0.0475923	-0.0049657	0.0478507	-5.95659	-0.050364	3.5265	12	0.2089722	0.0099995	-327.5556	0.0102967	0.0091905	-17.34923	7.53284	-0.788262	0.4446973	-0.0449404	-0.0309789	-0.0021684	-0.0010662	-0.119944	-0.0406498	-0.0052037	-0.0014298	0.0743616	-0.0124844	0.0031168	-0.0009209	0.0580086	-0.0385538	0.0025597	-0.0016048	-0.0294585	0.062391	-0.0012665	0.002739	0.0001009	0.0247328	-0.0001706	0.0009911	-0.0216594	-0.043558	-0.0007886	-0.0017433	-0.0022186	-0.0014359	-5.495549E-005	0.0001032	0.0249731	0.0020003	0.0008481	0.0001543
	21	39	79.00281	0.0486025	-0.0049706	1	0.048856	-5.839313	0.0486025	-0.0049706	0.048856	-5.839313	-0.0500287	3.526493	12	0.2045327	0.0099926	-327.5556	0.0080535	0.0069488	12.57088	13.58948	0.6785455	0.5979724	0.0432755	-0.0056755	0.001893	-0.0004276	-0.0588554	-0.0772325	-0.0029008	-0.0029799	0.008677	-0.0587058	0.0001311	-0.0024296	-0.042531	0.0337579	-0.001616	0.001435	-0.0510509	-0.0062788	-0.0022295	-7.581712E-005	0.0117941	0.0133487	0.000469	0.0004902	-0.0024496	0.0338867	-0.0001712	0.0014083	0.0028516	-0.0008133	0.0001092	-0.0001094	0.0172459	-0.0003004	0.0006036	-9.179116E-005
	22	41	63.3446	0.0494827	-0.0048769	1	0.0497224	-5.628766	0.0494827	-0.0048769	0.0497224	-5.628766	-0.0497341	3.526478	12	0.2008291	0.0099857	-327.5556	0.0064088	0.0058047	9.8376	15.28476	0.5613549	0.7083371	0.0340944	0.0069094	0.0015745	0.000132	-0.0105093	-0.0747147	-0.0004578	-0.0033751	0.0345824	-0.0320068	0.0014517	-0.0016245	-0.039697	-0.0094538	-0.0019019	-0.0004098	-0.0128615	-0.0384385	-0.0006235	-0.0016031	-0.0083162	0.011601	-0.000302	0.0003419	-0.0275815	0.0005219	-0.0011863	0.0001829	0.0009823	0.0017709	0.0001042	6.79493E-005	-0.0034266	0.0125954	-0.0001506	0.0004995
	23	43	49.86702	0.0503833	-0.0046926	1	0.0506014	-5.321052	0.0503833	-0.0046926	0.0506014	-5.321052	-0.0490392	3.526494	12	0.1969813	0.0099681	-327.5556	0.0049427	0.0044526	-17.81767	0.6273566	-0.8948101	0.1152799	-0.0102433	-0.0258174	-0.0004923	-0.0011797	-0.0027831	-0.056835	-0.0003531	-0.0026364	0.003783	0.0355166	0.0003414	0.0015643	0.0080858	0.0299074	0.0004373	0.0012999	-0.0053309	-0.0299968	-0.0003901	-0.001281	-0.002566	-0.0088829	-0.0001823	-0.0003695	0.0088512	0.0183084	0.000461	0.0007832	-0.0005197	0.0013185	-2.604723E-005	0.0001104	-0.0058884	-0.0075193	-0.0002771	-0.0003245
	24	44	39.72458	0.0511832	-0.0044336	1	0.0513749	-4.950752	0.0511832	-0.0044336	0.0513749	-4.950752	-0.0486377	3.526493	12	0.1933835	0.0099354	-327.5556	0.0038966	0.003448	12.30357	12.44909	0.6849816	0.5826219	0.0206094	-0.0085634	0.0009892	-0.0003724	-0.028152	-0.0335894	-0.0014446	-0.0014016	0.0019861	-0.0272049	-5.793572E-005	-0.0012814	-0.015655	0.0176025	-0.0005906	0.0008501	-0.0242123	-0.0018498	-0.0010626	5.364418E-006	0.0051454	0.0055167	0.0002279	0.0002109	0.0012516	0.0152875	6.556511E-005	0.0006236	-0.0001857	-0.0007068	-4.076959E-005	-2.336502E-005	0.0071379	-0.0006631	0.0003164	-8.45194E-005
	25	46	31.6723	0.0519051	-0.0041142	1	0.0520679	-4.532001	0.0519051	-0.0041142	0.0520679	-4.532001	-0.0482842	3.526496	12	0.1893354	0.0098585	-327.5556	0.00312	0.002801	15.33615	-7.646462	0.7645648	-0.4600246	-0.0202021	-0.0046554	-0.0009079	-0.000252	0.0331125	0.0067911	0.0016119	0.0001615	0.0210353	-0.0057215	0.0009723	-0.000363	-0.0098957	0.0113447	-0.0004082	0.00055	-0.0077126	0.0187506	-0.0002465	0.0008882	0.0003392	-0.0056757	1.382828E-005	-0.0002728	-0.005975	-0.0093867	-0.000319	-0.0003673	1.847744E-006	-0.0005204	1.907349E-005	-3.767015E-005	0.0041227	-0.0002005	0.0001528	-4.35114E-005
	26	48	24.93351	0.0525745	-0.0037236	1	0.0527062	-4.0512	0.0525745	-0.0037236	0.0527062	-4.0512	-0.0484248	3.52646	12	0.1829321	0.0096418	-327.5556	0.0023235	0.0021255	9.438751	13.60325	0.5469179	0.6800318	0.0159218	-0.0028242	0.000767	-0.0001356	-0.006282	-0.0242795	-0.00037	-0.0011636	0.012221	-0.010756	0.0005171	-0.0005763	-0.007893	0.0012847	-0.0003924	7.164478E-005	-0.0059763	-0.0118571	-0.0003316	-0.0005156	-0.0009181	0.0024757	-3.385545E-005	0.0001138	-0.0076962	0.0016358	-0.0003726	0.0001601	-0.0006396	4.322082E-005	-4.053117E-005	-1.597405E-005	-0.0012438	0.0036535	-6.318093E-005	0.0001556
	27	49	19.86229	0.0531095	-0.0033447	1	0.0532147	-3.6036	0.0531095	-0.0033447	0.0532147	-3.6036	-0.0459032	3.526592	12	0.2026118	0.010782	-327.5556	0.0019418	0.0016554	1.004028	-18.31083	-0.0079436	-0.975845	0.0079962	0.0097417	0.0003941	0.0003793	-0.023128	-0.0035727	-0.0011208	-7.277728E-005	-0.0029209	0.0129532	-6.604196E-005	0.0005691	-0.0115391	-0.0033873	-0.000504	-0.0001827	-0.0044283	0.0092312	-9.155274E-005	0.0004312	-0.0054494	-0.0032862	-0.0002012	-0.0001518	-0.0053563	0.0075768	-0.0001864	0.0003198	-0.0006613	-0.000876	-4.696847E-005	-0.0001217	-0.0023984	0.0014893	-0.0001464	8.106232E-006
	28	51	15.83615	0.0535619	-0.0029635	1	0.0536438	-3.166893	0.0535619	-0.0029635	0.0536438	-3.166893	-0.0462269	3.526562	12	0.1863902	0.0099987	-327.5556	0.0014642	0.001349	0.9051261	-16.84582	-0.0014594	-0.9049808	0.0070559	0.00824	0.0003066	0.0004274	-0.0149811	-0.004084	-0.0007515	-0.0001899	-0.0022354	0.0088118	-4.86374E-005	0.0004732	-0.0070758	-0.0028436	-0.0003185	-0.0001207	-0.0029845	0.0072212	-2.670288E-005	0.0003921	-0.0019628	-0.0005938	-0.0001054	-4.73261E-005	-0.0019367	0.0054818	-0.0000968	0.0002912	-0.0003858	0.001016	-1.931191E-005	5.173683E-005	-0.00206	0.0024707	2.217293E-005	7.152557E-005
	29	52	12.40079	0.0539517	-0.0025635	1	0.0540126	-2.720359	0.0539517	-0.0025635	0.0540126	-2.720359	-0.0458462	3.526565	12	0.1851248	0.0099991	-327.5556	0.0012584	0.0011306	0.8623363	-16.73338	0.0036154	-0.9050088	0.0065812	0.006805	0.0002687	0.0002947	-0.0134625	-0.002296	-0.0006599	-0.0001547	-0.002627	0.0078857	-8.106233E-005	0.0003943	-0.0061737	-0.0011911	-0.0003102	-0.0001155	-0.0018579	0.0056335	-7.271768E-005	0.0002832	-0.0024491	0.0001844	-0.0001209	2.765655E-005	-0.0017957	0.0031822	-0.0001078	0.0001651	-0.0017896	0.0012437	-8.869172E-005	5.328655E-005	0.0006842	0.0002205	3.099441E-005	-7.367135E-005
	30	54	9.93114	0.0542293	-0.0022384	1	0.0542755	-2.363648	0.0542293	-0.0022384	0.0542755	-2.363648	-0.0453223	3.526576	12	0.1841845	0.0099967	-327.5556	0.0010743	0.0009068	0.8206657	-16.65027	0.0072236	-0.9047721	0.0066526	0.0086538	0.0002377	0.0003414	-0.0095737	-0.0003011	-0.0004923	-6.866456E-005	-0.0018104	0.0062728	-6.771089E-005	0.0003098	-0.0053706	-7.718896E-005	-0.000231	-3.939868E-005	-0.0010868	0.0049306	-2.598763E-005	0.0002576	-0.0012175	0.0006689	-2.074242E-005	4.291534E-006	-0.0017619	0.0025404	-7.796289E-005	0.0001271	2.466887E-005	8.437596E-005	-5.24521E-006	-4.291535E-006	-0.0003272	0.0011362	-8.368493E-005	2.658367E-005
	31	56	7.944915	0.0544526	-0.001951	1	0.0544875	-2.051972	0.0544526	-0.001951	0.0544875	-2.051972	-0.0459588	3.526517	12	0.1834263	0.0099945	-327.5556	0.0012693	0.0010892	0.7813634	-16.58346	0.010185	-0.9045382	0.0072393	0.0120984	0.000196	0.0005487	-0.00808	0.0038766	-0.0004609	0.0001671	-0.0009083	0.0081799	-3.433229E-005	0.0003611	-0.0040621	0.0023548	-0.0002184	0.000134	-0.0017608	0.0063948	-6.699563E-005	0.0003607	-0.0010962	0.0015829	-5.865098E-005	5.149841E-005	-0.0009299	0.0044039	-1.549721E-005	0.0001935	-0.0001346	0.0018444	-4.60148E-005	0.0000975	-0.0004855	0.001896	-2.932549E-005	5.38826E-005
	32	58	6.317385	0.0546339	-0.001689	1	0.05466	-1.770757	0.0546278	-0.0016901	0.054654	-1.772115	-0.0450519	3.526551	12	0.1832018	0.0100138	-327.5556	0.0007276	0.0006129	0.7446637	-16.56481	0.0126989	-0.906259	0.0084895	0.0020033	0.0003605	3.987551E-005	-0.005867	-0.0021021	-0.0002966	-0.0001369	-0.0007684	0.0026823	-1.311302E-005	7.659197E-005	-0.0029524	-0.0019262	-0.0001166	-0.0001245	-0.0006857	0.0024562	4.62532E-005	0.0001539	-0.0007785	-0.0002416	-4.243852E-005	-5.781652E-005	-0.0008907	0.001371	-2.479553E-005	2.408028E-005	0.0004465	-0.0005945	7.152557E-007	-1.776219E-005	0.0001694	-1.568347E-006	-1.430512E-006	-5.185605E-005
	33	60	5.008013	0.0547741	-0.0014788	1	0.0547941	-1.546516	0.0547687	-0.0014794	0.0547887	-1.547237	-0.0445758	3.526558	12	0.182544	0.0100023	-327.5556	0.0006357	0.0005704	0.7046013	-16.50697	0.014178	-0.9051966	0.0082134	0.000224	0.0003335	-9.09567E-005	-0.0047867	-0.0018345	-0.0002701	-0.0001336	-0.0011214	0.0014061	-3.933908E-005	1.877546E-005	-0.0025112	-0.0005628	-0.0001025	-9.471179E-005	0.0004821	0.001953	4.601479E-005	8.249283E-005	-0.0008522	-0.0010434	-5.459786E-005	-0.000113	-0.0005557	3.051199E-005	-4.243852E-005	-5.304814E-005	0.0001984	-0.0001613	9.298325E-006	-4.184247E-005	-0.0006439	-0.0001437	-3.004074E-005	-5.400182E-005
	34	63	3.945707	0.0548933	-0.0013069	1	0.0549088	-1.363838	0.0548848	-0.0013079	0.0549004	-1.365113	-0.0442979	3.526549	12	0.1819236	0.0099892	-327.5556	0.0007253	0.0005711	0.6800674	-16.45179	0.0158262	-0.9039817	0.0084885	0.005862	0.000355	0.0002183	-0.0035058	-0.0001448	-0.0001931	-7.784368E-005	-0.0005756	0.0032832	-1.621246E-005	0.0001352	-0.001661	0.0010049	-5.817414E-005	2.205372E-005	-0.0005857	0.0020672	1.215935E-005	0.0001178	-0.0008051	0.0003833	-5.126E-005	-3.814698E-006	-0.0005295	0.0017315	-1.859665E-005	8.559227E-005	5.003065E-006	-0.000264	-7.152558E-007	-4.231931E-005	-0.0002378	0.0004368	-3.170968E-005	4.887581E-006
	35	66	3.158693	0.054988	-0.0011722	1	0.0550004	-1.221168	0.0549781	-0.0011721	0.0549906	-1.221281	-0.043677	3.526562	12	0.1818587	0.0100023	-327.5556	0.0006076	0.0004595	0.6662701	-16.44648	0.0173557	-0.9051395	0.0078606	0.0045924	0.0003071	0.0001843	-0.0030702	0.0007296	-0.0001397	-7.599593E-005	-4.5456E-005	0.0013066	-1.66893E-006	5.781651E-005	-0.0014646	0.0004274	-6.699563E-005	-2.610684E-005	-0.0002703	0.0011655	5.245209E-006	6.473064E-005	-0.0002199	-0.0007397	-1.645088E-005	-4.565717E-005	-0.0001992	0.0009786	5.483627E-006	2.419949E-005	-0.0002407	-8.930826E-005	-4.768373E-007	-4.255773E-005	-0.0001946	0.0001068	-3.337861E-005	-2.896786E-005
	36	69	2.504006	0.0550638	-0.0010741	1	0.0550743	-1.117538	0.0550601	-0.0010737	0.0550705	-1.117142	-0.0432208	3.526555	12	0.1815341	0.0099979	-327.5556	0.000696	0.0004978	0.6649082	-16.41713	0.0189755	-0.9047043	0.00984	0.0016959	0.0003941	9.566545E-006	-0.0024712	0.0012674	-0.0001225	7.152557E-006	0.0002406	0.0028745	3.767014E-005	8.98838E-005	-0.0012235	0.0009194	-3.981591E-005	1.555681E-005	-0.0002252	0.0020035	2.145767E-006	8.630753E-005	-0.001072	0.0016368	-3.480912E-005	5.495548E-005	-0.0007008	0.0016289	-9.536744E-007	6.496906E-005	-0.0003007	0.0010937	-1.335144E-005	6.937981E-005	-0.0001646	0.0005837	-4.768373E-006	-1.311302E-005
	37	73	1.998082	0.055145	-0.0010111	1	0.0551543	-1.050426	0.0551354	-0.0010103	0.0551447	-1.049805	-0.0426923	3.526558	12	0.181307	0.0099999	-327.5556	0.000796	0.0006024	0.6546124	-16.39697	0.0195174	-0.9048732	0.0117645	0.0029333	0.0004911	7.367134E-005	-0.0018037	0.0031531	-0.0001018	0.0001377	0.0016162	0.0015168	0.000109	2.324581E-006	-0.0007895	0.0001752	-4.005433E-005	-6.252528E-005	-8.501113E-005	0.0013743	1.120567E-005	2.551079E-005	-0.0005146	0.0005016	-1.358986E-005	-2.336502E-005	-0.0005465	0.0010676	-3.051758E-005	2.563E-005	-0.0002404	0.0006455	-1.788139E-005	-1.430512E-006	0.0002464	0.0006809	5.245209E-006	-2.110005E-005
	38	77	1.584686	0.0552233	-0.0009646	1	0.0552317	-1.000705	0.0552101	-0.0009639	0.0552186	-1.000186	-0.0421904	3.52656	12	0.1807567	0.0099835	-327.5556	0.0006017	0.0005981	0.6392984	-16.34773	0.0195334	-0.9033922	0.0060276	0.0001057	0.0001981	-0.0001336	-0.0062463	-0.0035033	-0.0003505	-0.0002478	0.0015964	0.0003803	0.0000961	-4.202128E-005	0.0011366	-0.0001387	6.03199E-005	-8.386375E-005	0.0010947	0.0016928	0.0001245	8.797646E-005	0.0001829	0.0004479	-7.867814E-006	-3.147125E-005	-5.752594E-005	0.0008187	-1.716614E-005	2.31266E-005	-0.0001101	0.0001175	2.217293E-005	-1.883507E-005	0.0001162	0.0005167	-1.883507E-005	-5.185605E-005
	39	81	1.266892	0.0552914	-0.0009543	1	0.0552996	-0.988767	0.0552783	-0.0009538	0.0552865	-0.988479	-0.041717	3.526554	12	0.1810807	0.0100137	-327.5556	0.0020316	0.0017734	0.6465157	-16.3768	0.0201175	-0.9061132	0.0249351	0.0190668	0.0011876	0.0009317	-0.0083015	0.0045969	-0.0004661	0.000183	-0.0024154	0.0040579	-0.0001109	0.0001413	0.0014303	0.0017315	0.000107	7.987022E-006	0.0001015	0.0009353	6.365776E-005	2.145767E-005	0.0002178	0.0012568	2.288818E-005	-1.573563E-005	-0.0008927	0.0009695	-4.053117E-005	3.552437E-005	-0.000518	0.001073	-1.430512E-005	3.933907E-005	-0.0001708	0.0005953	-2.503395E-005	-7.152558E-007
	40	87	0.999041	0.0553787	-0.0009562	1	0.055387	-0.989184	0.055359	-0.0009542	0.0553673	-0.987489	-0.0411849	3.526553	12	0.1807866	0.0100132	-327.5556	0.0006901	0.0007545	0.6407777	-16.35038	0.0198505	-0.9060765	0.0077156	0.0010828	0.0003047	-0.0001253	-0.0024252	-0.0061907	-7.438661E-005	-0.0004225	-0.0004581	-0.0019369	-2.384186E-007	-0.0002517	0.0004766	0.0004514	5.078316E-005	-8.130075E-005	0.000744	-0.0015417	1.358986E-005	-0.000138	0.0011661	-0.002777	8.606911E-005	-0.0002134	0.0019698	-0.0006244	0.0001268	-8.857251E-005	0.0011699	0.0007258	7.152557E-005	7.152557E-006	4.007295E-005	0.000165	5.00679E-006	-3.314019E-005
	41	92	0.7923428	0.0554711	-0.0009949	1	0.05548	-1.027524	0.0554476	-0.0009953	0.0554565	-1.028353	-0.0407449	3.526546	12	0.1803638	0.0100066	-327.5556	0.0019803	0.0020064	0.6641802	-16.31115	0.0206139	-0.9054584	-0.0168014	0.0037529	-0.0010762	6.321073E-005	-0.0239953	0.0060881	-0.001322	0.000209	-0.007463	-0.0033256	-0.0003533	-0.0002825	0.0007334	0.0036368	0.000097	0.0001429	-0.0046453	0.0026278	-0.000206	0.0001365	0.0023529	0.0015055	0.0001402	1.752377E-005	-0.0002431	0.0018046	2.098084E-005	5.471706E-005	0.0010049	0.0034565	4.506111E-005	0.0001451	-0.0013808	0.0009643	-4.649163E-005	-6.461144E-005
	42	99	0.6334459	0.055554	-0.0010459	1	0.0555638	-1.078579	0.0555372	-0.001045	0.0555471	-1.07794	-0.0396553	3.526566	12	0.1797411	0.0099871	-327.5556	0.0013355	0.0013357	0.6934717	-16.25352	0.0215247	-0.9036728	0.0025483	0.0037331	1.835823E-005	8.195639E-006	0.0182428	-0.0007503	0.0010619	-0.0002016	-0.0024901	0.0054207	-0.0001454	0.000236	-0.0040847	0.00336	-0.0001917	0.0001097	-0.0017864	-0.0005176	-6.175042E-005	-8.141995E-005	0.0002585	-0.0052053	1.597405E-005	-0.0003315	-0.0016584	0.003421	-6.079675E-005	0.000142	0.0009556	0.001762	7.414818E-005	6.92606E-005	0.0010107	0.0021424	7.629395E-005	5.364418E-005
	43	108	0.5040323	0.0557507	-0.0011223	1	0.055762	-1.153224	0.0557209	-0.0011223	0.0557322	-1.153868	-0.0387343	3.526569	12	0.1792254	0.009994	-327.5556	0.0016028	0.0013997	0.6984883	-16.20658	0.0207524	-0.9043129	0.013154	0.0138505	0.000438	0.0003628	0.0088192	-0.0049085	0.0005252	-0.0006135	0.0020741	0.0078537	0.0002444	0.0001935	-0.0003226	-0.005036	0.0001135	-0.00042	-0.004735	0.0072612	-0.00017	0.0003619	0.0037788	0.0019347	0.0003085	1.91927E-005	0.002184	0.0006848	0.0001719	1.358986E-005	-9.200723E-005	-0.0038895	-1.66893E-006	-0.0002254	-0.0001307	0.0020613	-2.789498E-005	6.425381E-005
	44	117	0.400641	0.055856	-0.0012142	1	0.0558692	-1.245271	0.0558354	-0.0012143	0.0558486	-1.245832	-0.0378504	3.526567	12	0.1789979	0.0100005	-327.5556	0.0016183	0.0013987	0.72702	-16.18472	0.020957	-0.9048962	0.0098848	0.0150209	0.0004187	0.0006064	0.0063781	0.0062311	0.0003567	0.0001683	0.0005267	0.0050026	5.078316E-005	0.0001867	-0.0105535	-0.0083099	-0.0005784	-0.0005562	-0.003565	0.0038136	-0.0001485	0.0001712	-0.0027252	0.0037783	-0.0001309	0.0001411	0.0010129	-0.0051286	7.224083E-005	-0.0003445	0.000554	-0.0005803	3.314018E-005	-8.463861E-005	-0.000915	0.001012	-4.196168E-005	-2.360344E-005
	45	131	0.316723	0.0559684	-0.0013362	1	0.0559844	-1.367622	0.0559447	-0.0013361	0.0559606	-1.368153	-0.0367385	3.526567	12	0.1787312	0.0100062	-327.5556	0.0015385	0.0012837	0.7686382	-16.15863	0.0214281	-0.9054006	0.0128054	0.0040209	0.0005903	-4.243852E-005	0.0071113	0.0060148	0.0004287	0.0001426	0.0016606	0.0018007	0.0001245	-9.179116E-006	-0.0038862	0.0096428	-0.0001752	0.0004513	0.0018791	0.0055095	0.0001273	0.0002851	0.0052309	0.009591	0.0003123	0.0004302	-0.0018353	0.0055468	-6.437303E-005	0.0002623	-0.0039017	0.0030823	-0.0001943	0.0001349	-0.0005467	0.0051004	-3.862382E-005	0.0001917
	46	148	0.2520161	0.0561012	-0.0014756	1	0.0561206	-1.506637	0.0560707	-0.0014759	0.0560901	-1.507751	-0.0355469	3.526555	12	0.1781699	0.009999	-327.5556	0.0013735	0.0014017	-0.2999483	-16.12331	-0.0422216	-0.9040173	0.0085981	0.001833	0.0003796	-0.0001176	0.0059099	-0.0030476	0.0002971	-0.0002965	0.004236	0.0054604	0.0002666	0.0001436	0.0020556	0.0005494	0.0001426	-0.0001068	-0.0006415	-0.0085006	-2.384186E-007	-0.0005709	-0.0026434	-0.0023147	-0.0001466	-0.0001979	0.0006266	0.000914	5.745888E-005	-5.149842E-005	-0.011409	0.0022662	-0.0005996	0.0001057	0.0039097	-0.0089427	0.000206	-0.0005883
	47	170	0.2003205	0.056266	-0.0016473	1	0.0562901	-1.676957	0.0562281	-0.0016485	0.0562522	-1.679304	-0.0343313	3.526563	12	0.1775779	0.0099959	-327.5556	0.0016613	0.0015171	-0.0282198	-16.0725	-0.0293374	-0.9042464	0.0139137	0.0065202	0.0006173	-8.58307E-006	-0.0109063	-0.004279	-0.0005705	-0.0004649	0.0031933	0.0038087	0.0002005	7.385015E-005	0.0023644	0.004981	0.0001631	0.0001374	-0.0002683	0.0127127	4.076958E-005	0.0006181	0.0039247	0.0023802	0.0002766	4.684925E-005	-0.0045009	-0.0031667	-0.0002396	-0.0002394	0.0074916	-0.0034196	0.000421	-0.0002573	0.0004929	-0.0018446	-2.503395E-005	-0.0002211
	48	192	0.1588983	0.0564349	-0.0018499	1	0.0564652	-1.877417	0.0563982	-0.0018502	0.0564285	-1.878969	-0.0328538	3.526561	12	0.1771502	0.0100028	-327.5556	0.001381	0.0012843	0.2146219	-16.03237	-0.0185564	-0.9051614	0.0030773	0.0048376	6.484985E-005	-7.081033E-005	0.0018878	0.0028127	0.0001335	-6.550551E-005	-0.0035641	-0.0010082	-0.0002127	-0.0002074	-0.0062528	0.0101241	-0.0003128	0.0004295	-0.0037774	-0.0090065	-0.0001805	-0.0006001	-0.0050924	0.0010852	-0.000278	-3.671647E-005	-0.0004477	0.0009371	-2.408028E-005	-2.098084E-005	0.0026324	0.0094905	0.0001559	0.0004451	-0.0080888	-0.0021525	-0.0004711	-0.0001829
	49	225	0.1260081	0.0566582	-0.0020864	1	0.0566966	-2.108957	0.056601	-0.0020842	0.0566393	-2.108842	-0.0318063	3.526558	12	0.17643	0.010003	-327.5556	0.0017125	0.0013153	0.4217937	-15.96305	-0.0102091	-0.9053076	0.0140789	0.0093104	0.0006874	4.392862E-005	-0.0034483	0.0039142	-0.0001228	-0.0001017	-0.0060151	0.0082056	-0.0002899	0.0002272	0.0006456	0.0035371	9.417534E-005	2.193451E-005	0.0001231	0.0136103	0.0000954	0.0005912	-0.0022981	-0.0041328	-0.0001268	-0.0003566	-0.00666	0.0077683	-0.0003421	0.0002986	0.0003806	-0.0004447	4.1008E-005	-0.0001384	-0.0022123	-0.0013212	-0.0001123	-0.0001783
	50	264	0.1001603	0.0569158	-0.0023576	1	0.0569646	-2.372029	0.0568134	-0.0023518	0.056862	-2.370377	-0.0319651	3.526552	12	0.1755494	0.0100001	-327.5556	0.0018952	0.000975	0.6035826	-15.87745	-0.0037167	-0.9050984	0.0067669	0.0186512	0.0003343	0.0000995	-0.0059926	0.0087726	-0.0002489	-6.508828E-005	-0.0014806	0.0057946	-6.484986E-005	-7.81417E-005	-0.0002231	0.0129964	3.480911E-005	0.0003757	0.0035407	0.0035026	0.0002472	-6.222726E-005	0.0063978	0.0034796	0.0004323	-5.459786E-005	-0.0049947	0.0077253	-0.0002162	0.0002184	-0.0038136	0.003446	-0.0001693	4.291534E-006	0.0025687	-8.93958E-005	0.0001514	-0.0001934
	51	311	0.0794492	0.0572004	-0.0026784	1	0.057263	-2.680899	0.0570509	-0.0026667	0.0571132	-2.676244	-0.0317038	3.526547	12	0.1746132	0.0099989	-327.5556	0.002233	0.0009335	0.7753968	-15.78515	0.0015693	-0.904994	0.0072723	0.0218947	0.0004334	-1.963973E-005	-0.0086605	0.0115062	-0.0003517	-0.000145	-0.0035434	0.0126786	-9.393693E-005	0.0001319	-0.0046512	0.0143875	-0.0001922	0.0003248	-0.0002915	0.0050778	8.487701E-005	-8.404256E-005	-0.0052961	0.0009127	-0.000248	-0.0003221	-0.0023535	0.0048744	-9.202958E-005	-5.006791E-006	0.0001765	0.003679	6.985664E-005	-4.720689E-005	-0.000722	0.0023984	-1.168251E-005	-0.0001298
	52	363	0.0631739	0.0573973	-0.0030555	1	0.0574786	-3.047234	0.057308	-0.0030467	0.0573889	-3.043148	-0.0277625	3.526548	12	0.1740013	0.0100014	-327.5556	0.0017611	0.0010863	0.9485089	-15.72022	0.006007	-0.9051992	0.0063381	0.0149525	0.000355	1.257658E-005	-0.0040232	0.0114668	-0.000155	0.0001543	0.0004795	0.0028739	0.0001078	-0.0002081	0.0057588	0.0056697	0.0003622	2.56896E-005	-0.0029385	0.0107909	-7.033349E-005	0.0004055	-0.0018043	0.0095954	-3.981591E-005	0.0003594	-0.0026296	-0.00014	-0.000103	-0.0001997	0.0025524	-0.0050101	0.0001845	-0.0004318	0.0028882	0.0040945	0.0001769	6.067753E-005
	53	413	0.0501337	0.0576679	-0.0035102	1	0.0577746	-3.483251	0.0575898	-0.0035005	0.0576961	-3.478362	-0.0251974	3.526541	12	0.1731045	0.010001	-327.5556	0.0013066	0.0006977	1.108364	-15.62837	0.0087397	-0.9051494	0.0066165	0.0154854	0.0004106	0.0001207	-0.0036453	0.0042292	-0.0001554	-0.0001974	-0.0025189	0.0030523	-7.55787E-005	-0.0001443	0.0013862	0.004984	0.0001302	6.556511E-007	8.223765E-005	0.0038802	5.483627E-005	3.576279E-006	0.0009896	0.0018806	8.535385E-005	-5.269052E-005	0.000437	0.0016494	7.176399E-005	-5.37634E-005	-0.0044655	0.0028215	-0.0002358	3.552437E-005	-0.0031841	0.0011821	-0.000165	-6.234647E-005
	54	495	0.0398258	0.0579697	-0.0040531	1	0.0581112	-3.999441	0.0578933	-0.0040428	0.0580343	-3.994604	-0.0222215	3.526547	12	0.1720781	0.0099997	-327.5556	0.0014054	0.000533	1.284157	-15.52171	0.0112786	-0.9049968	0.0011342	0.0157335	7.796288E-005	0.0001526	-0.0013402	0.0078162	-1.66893E-006	-1.347065E-005	-0.0018488	0.0064986	-6.628037E-005	4.845858E-005	-0.0018751	0.0057355	-4.816056E-005	7.498264E-005	0.0026039	-6.123819E-005	0.0001967	-0.0002055	0.0018442	-8.658973E-005	0.000114	-0.0001752	-0.003078	0.0051964	-0.00014	0.0001571	-0.0014994	0.0045401	-4.839898E-005	0.0001112	-0.0015488	0.0036571	-5.531312E-005	4.23193E-005
	55	597	0.0316296	0.0584123	-0.0047104	1	0.0586019	-4.610358	0.0583237	-0.0046972	0.0585125	-4.604447	-0.019636	3.526563	11	0.1674912	0.0098153	-327.5556	0.0016609	0.0008736	1.420177	-15.09291	0.0116653	-0.8883034	0.0062617	0.0163647	0.0004823	9.301305E-005	0.0016611	0.0114853	0.0001667	0.0001037	-0.0012688	0.0049028	-1.40667E-005	-5.88894E-005	0.0038854	0.0018246	0.0002203	-0.0002038	-0.0003894	0.0032222	1.072884E-005	-4.291535E-006	-0.0054366	0.0080515	-0.0002532	0.0002671	-0.000988	0.004622	-2.264977E-005	8.380413E-005	0.0044085	0.000747	0.0002432	-0.0001336	-0.0001303	0.0009521	1.597405E-005	-9.119512E-005
	56	694	0.0251206	0.0588016	-0.0055009	1	0.0590584	-5.344488	0.0587031	-0.0054836	0.0589587	-5.336633	-0.0176473	3.526565	11	0.1694328	0.0100064	-327.5556	0.0017488	0.0006015	1.65424	-15.24583	0.0132463	-0.9055815	0.0038635	0.0182645	0.0003467	6.636977E-005	-0.0024772	0.0138088	-5.006791E-006	0.0002089	-4.797965E-005	0.0087161	8.559227E-005	0.0000953	0.0008155	0.005814	7.820129E-005	2.288818E-005	-0.0013357	0.0027493	-6.437303E-006	-0.0000973	0.0018083	0.001479	0.0001156	-0.0001746	-0.0020102	0.0043466	-3.314019E-005	3.421307E-005	-0.0038794	0.0018123	-0.0001945	-7.93934E-005	0.000863	0.0025741	6.79493E-005	-3.278256E-005
	57	815	0.0199553	0.059265	-0.0064568	1	0.0596157	-6.217733	0.0591763	-0.0064396	0.0595257	-6.210496	-0.0148734	3.526559	11	0.1677989	0.0100035	-327.5556	0.0015662	0.0004946	1.885156	-15.06997	0.0142932	-0.9052965	0.0034324	0.0170272	0.0003278	2.205372E-005	-0.0023361	0.0105473	-4.935266E-005	8.904934E-005	0.0008843	0.0058945	0.0001161	-3.373624E-005	-0.0025007	0.0065706	-0.000098	7.18236E-005	-5.89837E-005	0.003056	4.935265E-005	-4.494191E-005	-0.0024994	0.0051982	-0.0000966	7.092953E-005	7.783668E-005	0.003148	6.008148E-005	-2.145767E-006	-0.000789	0.0014748	-3.409387E-005	-6.330014E-005	-0.0022902	0.0013592	-0.0001199	-0.0001043
	58	1018	0.0158522	0.0598551	-0.0076035	1	0.0603362	-7.239625	0.0597668	-0.0075819	0.0602458	-7.229817	-0.0120246	3.526545	11	0.1657974	0.0100036	-327.5556	0.0015339	0.0003923	2.137676	-14.85323	0.0149133	-0.9052976	0.0022274	0.0172632	0.000288	5.936623E-005	-0.0028633	0.0097149	-3.0756E-005	3.457069E-005	-0.0003072	0.0056839	5.269051E-005	-2.372265E-005	-0.0006641	0.0045488	6.67572E-006	-2.747774E-005	-0.0002438	0.0036249	2.503395E-005	-1.645088E-005	-1.472887E-005	0.0045543	4.36306E-005	3.933907E-005	0.0008692	0.0034182	8.153915E-005	1.430512E-005	0.0008315	0.0035742	6.628036E-005	4.768372E-005	-0.0024149	0.0022465	-0.0001137	-5.102159E-005
	59	1272	0.0125907	0.0606324	-0.0089593	1	0.0612907	-8.405449	0.0605487	-0.0089349	0.0612044	-8.394253	-0.0092428	3.526546	11	0.1632301	0.0100045	-327.5556	0.0014542	0.0003691	2.405608	-14.57673	0.0151803	-0.9053758	7.311814E-005	0.0173457	0.0002055	8.410215E-005	-0.0023888	0.007078	-4.124642E-005	-7.593633E-005	-2.650917E-005	0.0061621	8.964539E-005	3.957748E-005	-0.0009456	0.0042781	3.576279E-006	-1.585484E-005	0.0006491	0.002211	7.772446E-005	-5.984307E-005	-0.0020634	0.0041224	-8.84533E-005	5.424023E-005	-0.0006479	0.0038101	-8.344651E-006	5.030632E-005	0.0013324	0.0005836	0.0000999	-0.0001037	-0.0002659	0.002014	5.722046E-006	-3.57628E-005
	60	1592	0.0100011	0.0615826	-0.0105247	1	0.0624755	-9.69838	0.0615006	-0.0104956	0.0623897	-9.68472	-0.0069876	3.526536	11	0.1601666	0.0100065	-327.5556	0.0014146	0.0003728	2.687959	-14.24525	0.0155408	-0.905551	-1.498871E-005	0.0162645	0.000236	4.583597E-005	-0.0036319	0.0080145	-7.55787E-005	1.722574E-005	-1.76318E-005	0.0047696	6.699562E-005	-2.43783E-005	-0.0029424	0.003853	-0.0001266	-1.895428E-005	-0.0003673	0.0040028	4.768372E-005	6.055832E-005	0.0001921	0.0020428	5.38826E-005	-7.700921E-005	-0.0004003	0.0009479	-9.059907E-006	-0.000111	-0.0007618	0.0019084	-3.004074E-005	-2.157688E-005	-0.0001803	0.0025752	1.311302E-005	-1.549721E-006
