EXPLAIN
TAG	EISPOT
TITLE	LABEL	35E_4	Test &Identifier
DATE	LABEL	7/9/2026	Date
TIME	LABEL	14:53:07	Time
NOTES	NOTES	6	&Notes...
	Potentiostatic EIS Data Test preformed on a 30Q battery.
	- 10 AC mV rms preformed on 7/9/26
	- 35E_4
	- Custom Battery Holder Tray. Wood Base w/ reference aligator clips connected to center of banana plug.
	- No Floating Ground
	- No Faraday Cage
PSTAT	PSTAT	REF3000-51199	Potentiostat
VDC	POTEN	0.00000E+000	T	DC &Voltage (V)
FREQINIT	QUANT	1.00000E+004	Initial Fre&q. (Hz)
FREQFINAL	QUANT	1.00000E-002	Final Fre&q. (Hz)
PTSPERDEC	QUANT	1.00000E+001	Points/&decade
VAC	QUANT	1.00000E+001	AC &Voltage (mV rms)
AREA	QUANT	2.54000E+000	&Area (cm^2)
CONDIT	TWOPARAM	F	1.50000E+001	0.00000E+000	Conditionin&g	Time(s)	E(V)
DELAY	TWOPARAM	T	1.80000E+003	0.00000E+000	Init. De&lay	Time(s)	Stab.(mV/s)
SPEED	SELECTOR	1	&Optimize for:
THD	SELECTOR	1	T&HD
DRIFTCOR	SELECTOR	1	&Drift Correction
ZGUESS	QUANT	1.00000E-001	E&stimated Z (ohms)
OCVCURVE	TABLE	718
	Pt	T	Vf	Vm	Ach	Over	Temp
	#	s	V vs. Ref.	V	V	bits	deg C
	0	2.50833	3.53006E+000	3.53006E+000	-4.01813E-004	...........	-327.56
	1	5.01667	3.53006E+000	3.52977E+000	-4.00093E-004	...........	-327.56
	2	7.525	3.53003E+000	3.52969E+000	-3.98500E-004	...........	-327.56
	3	10.0333	3.52995E+000	3.52964E+000	-4.04987E-004	...........	-327.56
	4	12.5417	3.52985E+000	3.52964E+000	-4.05573E-004	...........	-327.56
	5	15.05	3.52975E+000	3.52964E+000	-4.04427E-004	...........	-327.56
	6	17.5583	3.52968E+000	3.52962E+000	-4.06540E-004	...........	-327.56
	7	20.0667	3.52965E+000	3.52962E+000	-3.98813E-004	...........	-327.56
	8	22.575	3.52963E+000	3.52962E+000	-4.01200E-004	...........	-327.56
	9	25.0833	3.52962E+000	3.52962E+000	-3.97867E-004	...........	-327.56
	10	27.5917	3.52962E+000	3.52959E+000	-3.96067E-004	...........	-327.56
	11	30.1	3.52962E+000	3.52960E+000	-3.95273E-004	...........	-327.56
	12	32.6083	3.52961E+000	3.52960E+000	-3.95907E-004	...........	-327.56
	13	35.1167	3.52960E+000	3.52962E+000	-3.96160E-004	...........	-327.56
	14	37.625	3.52960E+000	3.52962E+000	-3.96340E-004	...........	-327.56
	15	40.1333	3.52960E+000	3.52961E+000	-3.99573E-004	...........	-327.56
	16	42.6417	3.52961E+000	3.52962E+000	-4.01333E-004	...........	-327.56
	17	45.15	3.52961E+000	3.52962E+000	-4.02967E-004	...........	-327.56
	18	47.6583	3.52962E+000	3.52961E+000	-4.03253E-004	...........	-327.56
	19	50.1667	3.52962E+000	3.52961E+000	-3.97433E-004	...........	-327.56
	20	52.675	3.52962E+000	3.52963E+000	-4.02560E-004	...........	-327.56
	21	55.1833	3.52962E+000	3.52959E+000	-4.04420E-004	...........	-327.56
	22	57.6917	3.52962E+000	3.52957E+000	-3.99727E-004	...........	-327.56
	23	60.2	3.52961E+000	3.52957E+000	-4.00120E-004	...........	-327.56
	24	62.7083	3.52960E+000	3.52958E+000	-4.03433E-004	...........	-327.56
	25	65.2167	3.52959E+000	3.52960E+000	-4.06400E-004	...........	-327.56
	26	67.725	3.52958E+000	3.52958E+000	-3.99733E-004	...........	-327.56
	27	70.2333	3.52958E+000	3.52959E+000	-4.01080E-004	...........	-327.56
	28	72.7417	3.52959E+000	3.52959E+000	-4.02287E-004	...........	-327.56
	29	75.25	3.52959E+000	3.52959E+000	-4.04767E-004	...........	-327.56
	30	77.7583	3.52959E+000	3.52959E+000	-4.00540E-004	...........	-327.56
	31	80.2667	3.52959E+000	3.52958E+000	-4.04267E-004	...........	-327.56
	32	82.775	3.52959E+000	3.52959E+000	-4.03780E-004	...........	-327.56
	33	85.2833	3.52959E+000	3.52957E+000	-4.02780E-004	...........	-327.56
	34	87.7917	3.52958E+000	3.52958E+000	-4.04107E-004	...........	-327.56
	35	90.3	3.52958E+000	3.52959E+000	-4.03107E-004	...........	-327.56
	36	92.8083	3.52958E+000	3.52956E+000	-4.03627E-004	...........	-327.56
	37	95.317	3.52958E+000	3.52958E+000	-4.07153E-004	...........	-327.56
	38	97.825	3.52958E+000	3.52956E+000	-4.02567E-004	...........	-327.56
	39	100.333	3.52958E+000	3.52959E+000	-3.99453E-004	...........	-327.56
	40	102.842	3.52957E+000	3.52958E+000	-4.00213E-004	...........	-327.56
	41	105.35	3.52958E+000	3.52957E+000	-3.96167E-004	...........	-327.56
	42	107.858	3.52958E+000	3.52957E+000	-3.99087E-004	...........	-327.56
	43	110.367	3.52958E+000	3.52957E+000	-3.99533E-004	...........	-327.56
	44	112.875	3.52958E+000	3.52959E+000	-3.97467E-004	...........	-327.56
	45	115.383	3.52958E+000	3.52958E+000	-3.98153E-004	...........	-327.56
	46	117.892	3.52958E+000	3.52956E+000	-3.95667E-004	...........	-327.56
	47	120.4	3.52958E+000	3.52957E+000	-4.00753E-004	...........	-327.56
	48	122.908	3.52958E+000	3.52959E+000	-3.96853E-004	...........	-327.56
	49	125.417	3.52958E+000	3.52958E+000	-3.99687E-004	...........	-327.56
	50	127.925	3.52958E+000	3.52957E+000	-4.00573E-004	...........	-327.56
	51	130.433	3.52958E+000	3.52959E+000	-4.01193E-004	...........	-327.56
	52	132.942	3.52958E+000	3.52958E+000	-3.98653E-004	...........	-327.56
	53	135.45	3.52958E+000	3.52959E+000	-3.98793E-004	...........	-327.56
	54	137.958	3.52958E+000	3.52958E+000	-3.98640E-004	...........	-327.56
	55	140.467	3.52958E+000	3.52959E+000	-3.95047E-004	...........	-327.56
	56	142.975	3.52958E+000	3.52958E+000	-3.96460E-004	...........	-327.56
	57	145.483	3.52958E+000	3.52959E+000	-4.00587E-004	...........	-327.56
	58	147.992	3.52958E+000	3.52958E+000	-4.01127E-004	...........	-327.56
	59	150.5	3.52958E+000	3.52958E+000	-3.98307E-004	...........	-327.56
	60	153.008	3.52958E+000	3.52957E+000	-3.97573E-004	...........	-327.56
	61	155.517	3.52958E+000	3.52958E+000	-3.98007E-004	...........	-327.56
	62	158.025	3.52958E+000	3.52959E+000	-3.94627E-004	...........	-327.56
	63	160.533	3.52958E+000	3.52958E+000	-3.94927E-004	...........	-327.56
	64	163.042	3.52958E+000	3.52959E+000	-3.94887E-004	...........	-327.56
	65	165.55	3.52958E+000	3.52957E+000	-3.97633E-004	...........	-327.56
	66	168.058	3.52958E+000	3.52957E+000	-3.88973E-004	...........	-327.56
	67	170.567	3.52958E+000	3.52957E+000	-3.96320E-004	...........	-327.56
	68	173.075	3.52958E+000	3.52961E+000	-3.94587E-004	...........	-327.56
	69	175.583	3.52958E+000	3.52959E+000	-3.95407E-004	...........	-327.56
	70	178.092	3.52958E+000	3.52960E+000	-3.96853E-004	...........	-327.56
	71	180.6	3.52959E+000	3.52961E+000	-3.97840E-004	...........	-327.56
	72	183.108	3.52960E+000	3.52961E+000	-4.01527E-004	...........	-327.56
	73	185.617	3.52960E+000	3.52957E+000	-4.02400E-004	...........	-327.56
	74	188.125	3.52960E+000	3.52958E+000	-4.04193E-004	...........	-327.56
	75	190.633	3.52959E+000	3.52955E+000	-4.06520E-004	...........	-327.56
	76	193.142	3.52958E+000	3.52957E+000	-4.05307E-004	...........	-327.56
	77	195.65	3.52957E+000	3.52957E+000	-4.00547E-004	...........	-327.56
	78	198.158	3.52957E+000	3.52956E+000	-4.04960E-004	...........	-327.56
	79	200.667	3.52957E+000	3.52957E+000	-4.04473E-004	...........	-327.56
	80	203.175	3.52957E+000	3.52956E+000	-4.08953E-004	...........	-327.56
	81	205.683	3.52957E+000	3.52957E+000	-4.08660E-004	...........	-327.56
	82	208.192	3.52957E+000	3.52957E+000	-4.08067E-004	...........	-327.56
	83	210.7	3.52957E+000	3.52956E+000	-3.99740E-004	...........	-327.56
	84	213.208	3.52957E+000	3.52956E+000	-4.02467E-004	...........	-327.56
	85	215.717	3.52957E+000	3.52958E+000	-4.02887E-004	...........	-327.56
	86	218.225	3.52957E+000	3.52957E+000	-4.02507E-004	...........	-327.56
	87	220.733	3.52957E+000	3.52956E+000	-4.04020E-004	...........	-327.56
	88	223.242	3.52957E+000	3.52956E+000	-4.06500E-004	...........	-327.56
	89	225.75	3.52957E+000	3.52956E+000	-4.05913E-004	...........	-327.56
	90	228.258	3.52957E+000	3.52957E+000	-4.01347E-004	...........	-327.56
	91	230.767	3.52956E+000	3.52959E+000	-4.04893E-004	...........	-327.56
	92	233.275	3.52957E+000	3.52959E+000	-4.05553E-004	...........	-327.56
	93	235.783	3.52957E+000	3.52956E+000	-4.01093E-004	...........	-327.56
	94	238.292	3.52958E+000	3.52957E+000	-4.05107E-004	...........	-327.56
	95	240.8	3.52958E+000	3.52956E+000	-3.99287E-004	...........	-327.56
	96	243.308	3.52958E+000	3.52957E+000	-4.04367E-004	...........	-327.56
	97	245.817	3.52957E+000	3.52957E+000	-4.02847E-004	...........	-327.56
	98	248.325	3.52957E+000	3.52956E+000	-4.02380E-004	...........	-327.56
	99	250.833	3.52957E+000	3.52958E+000	-4.01420E-004	...........	-327.56
	100	253.342	3.52957E+000	3.52957E+000	-3.96580E-004	...........	-327.56
	101	255.85	3.52957E+000	3.52956E+000	-4.05733E-004	...........	-327.56
	102	258.358	3.52957E+000	3.52957E+000	-4.00100E-004	...........	-327.56
	103	260.867	3.52957E+000	3.52956E+000	-3.99980E-004	...........	-327.56
	104	263.375	3.52957E+000	3.52957E+000	-4.04460E-004	...........	-327.56
	105	265.883	3.52957E+000	3.52959E+000	-4.02593E-004	...........	-327.56
	106	268.392	3.52957E+000	3.52958E+000	-4.02413E-004	...........	-327.56
	107	270.9	3.52957E+000	3.52959E+000	-3.96673E-004	...........	-327.56
	108	273.408	3.52958E+000	3.52959E+000	-3.95853E-004	...........	-327.56
	109	275.917	3.52958E+000	3.52959E+000	-4.02633E-004	...........	-327.56
	110	278.425	3.52959E+000	3.52957E+000	-3.99053E-004	...........	-327.56
	111	280.933	3.52959E+000	3.52959E+000	-3.96167E-004	...........	-327.56
	112	283.442	3.52959E+000	3.52958E+000	-3.97820E-004	...........	-327.56
	113	285.95	3.52958E+000	3.52957E+000	-4.01367E-004	...........	-327.56
	114	288.458	3.52958E+000	3.52959E+000	-4.01980E-004	...........	-327.56
	115	290.967	3.52958E+000	3.52958E+000	-3.98180E-004	...........	-327.56
	116	293.475	3.52958E+000	3.52956E+000	-3.97213E-004	...........	-327.56
	117	295.983	3.52958E+000	3.52959E+000	-3.97947E-004	...........	-327.56
	118	298.492	3.52958E+000	3.52958E+000	-3.97987E-004	...........	-327.56
	119	301	3.52958E+000	3.52957E+000	-3.98327E-004	...........	-327.56
	120	303.508	3.52958E+000	3.52957E+000	-4.00400E-004	...........	-327.56
	121	306.017	3.52958E+000	3.52959E+000	-3.94587E-004	...........	-327.56
	122	308.525	3.52958E+000	3.52958E+000	-3.95647E-004	...........	-327.56
	123	311.033	3.52958E+000	3.52956E+000	-3.98713E-004	...........	-327.56
	124	313.542	3.52958E+000	3.52957E+000	-3.96600E-004	...........	-327.56
	125	316.05	3.52958E+000	3.52958E+000	-3.97753E-004	...........	-327.56
	126	318.558	3.52957E+000	3.52958E+000	-3.97147E-004	...........	-327.56
	127	321.067	3.52957E+000	3.52957E+000	-3.97800E-004	...........	-327.56
	128	323.575	3.52957E+000	3.52958E+000	-3.97200E-004	...........	-327.56
	129	326.083	3.52958E+000	3.52957E+000	-3.96133E-004	...........	-327.56
	130	328.592	3.52958E+000	3.52959E+000	-3.98153E-004	...........	-327.56
	131	331.1	3.52958E+000	3.52957E+000	-3.95213E-004	...........	-327.56
	132	333.608	3.52958E+000	3.52958E+000	-3.95513E-004	...........	-327.56
	133	336.117	3.52958E+000	3.52956E+000	-3.96893E-004	...........	-327.56
	134	338.625	3.52958E+000	3.52960E+000	-3.92847E-004	...........	-327.56
	135	341.133	3.52958E+000	3.52959E+000	-4.01707E-004	...........	-327.56
	136	343.642	3.52958E+000	3.52958E+000	-4.00507E-004	...........	-327.56
	137	346.15	3.52958E+000	3.52956E+000	-3.94840E-004	...........	-327.56
	138	348.658	3.52958E+000	3.52957E+000	-3.97233E-004	...........	-327.56
	139	351.167	3.52958E+000	3.52956E+000	-3.99213E-004	...........	-327.56
	140	353.675	3.52957E+000	3.52957E+000	-3.97540E-004	...........	-327.56
	141	356.183	3.52957E+000	3.52957E+000	-4.02347E-004	...........	-327.56
	142	358.692	3.52957E+000	3.52959E+000	-4.00760E-004	...........	-327.56
	143	361.2	3.52957E+000	3.52957E+000	-3.97753E-004	...........	-327.56
	144	363.708	3.52957E+000	3.52957E+000	-3.94753E-004	...........	-327.56
	145	366.217	3.52958E+000	3.52958E+000	-3.99847E-004	...........	-327.56
	146	368.725	3.52958E+000	3.52956E+000	-3.98633E-004	...........	-327.56
	147	371.233	3.52957E+000	3.52958E+000	-3.99207E-004	...........	-327.56
	148	373.742	3.52957E+000	3.52956E+000	-3.95013E-004	...........	-327.56
	149	376.25	3.52957E+000	3.52957E+000	-3.94987E-004	...........	-327.56
	150	378.758	3.52957E+000	3.52957E+000	-3.93953E-004	...........	-327.56
	151	381.267	3.52957E+000	3.52958E+000	-3.93460E-004	...........	-327.56
	152	383.775	3.52957E+000	3.52959E+000	-3.95260E-004	...........	-327.56
	153	386.283	3.52957E+000	3.52957E+000	-3.99260E-004	...........	-327.56
	154	388.792	3.52958E+000	3.52957E+000	-3.98467E-004	...........	-327.56
	155	391.3	3.52958E+000	3.52959E+000	-3.97107E-004	...........	-327.56
	156	393.808	3.52958E+000	3.52958E+000	-3.96173E-004	...........	-327.56
	157	396.317	3.52958E+000	3.52959E+000	-3.93933E-004	...........	-327.56
	158	398.825	3.52958E+000	3.52958E+000	-4.00313E-004	...........	-327.56
	159	401.333	3.52958E+000	3.52959E+000	-4.02313E-004	...........	-327.56
	160	403.842	3.52958E+000	3.52959E+000	-4.01433E-004	...........	-327.56
	161	406.35	3.52959E+000	3.52957E+000	-4.01927E-004	...........	-327.56
	162	408.858	3.52959E+000	3.52957E+000	-4.05840E-004	...........	-327.56
	163	411.367	3.52958E+000	3.52957E+000	-3.99420E-004	...........	-327.56
	164	413.875	3.52958E+000	3.52958E+000	-4.00567E-004	...........	-327.56
	165	416.383	3.52958E+000	3.52959E+000	-4.01053E-004	...........	-327.56
	166	418.892	3.52958E+000	3.52957E+000	-4.02473E-004	...........	-327.56
	167	421.4	3.52958E+000	3.52957E+000	-3.99453E-004	...........	-327.56
	168	423.908	3.52958E+000	3.52956E+000	-3.97533E-004	...........	-327.56
	169	426.417	3.52957E+000	3.52958E+000	-4.00773E-004	...........	-327.56
	170	428.925	3.52957E+000	3.52957E+000	-3.96833E-004	...........	-327.56
	171	431.433	3.52957E+000	3.52956E+000	-4.03193E-004	...........	-327.56
	172	433.942	3.52957E+000	3.52959E+000	-4.01687E-004	...........	-327.56
	173	436.45	3.52957E+000	3.52957E+000	-3.96900E-004	...........	-327.56
	174	438.958	3.52957E+000	3.52959E+000	-3.98353E-004	...........	-327.56
	175	441.467	3.52958E+000	3.52958E+000	-4.03987E-004	...........	-327.56
	176	443.975	3.52958E+000	3.52958E+000	-4.02373E-004	...........	-327.56
	177	446.483	3.52958E+000	3.52959E+000	-3.96953E-004	...........	-327.56
	178	448.992	3.52958E+000	3.52958E+000	-4.01127E-004	...........	-327.56
	179	451.5	3.52958E+000	3.52959E+000	-4.05227E-004	...........	-327.56
	180	454.008	3.52958E+000	3.52959E+000	-3.97133E-004	...........	-327.56
	181	456.517	3.52958E+000	3.52958E+000	-3.94553E-004	...........	-327.56
	182	459.025	3.52958E+000	3.52956E+000	-3.95380E-004	...........	-327.56
	183	461.533	3.52958E+000	3.52958E+000	-3.97860E-004	...........	-327.56
	184	464.042	3.52958E+000	3.52957E+000	-4.00600E-004	...........	-327.56
	185	466.55	3.52957E+000	3.52956E+000	-3.99000E-004	...........	-327.56
	186	469.058	3.52957E+000	3.52957E+000	-3.94333E-004	...........	-327.56
	187	471.567	3.52957E+000	3.52957E+000	-4.01460E-004	...........	-327.56
	188	474.075	3.52957E+000	3.52957E+000	-3.97967E-004	...........	-327.56
	189	476.583	3.52957E+000	3.52957E+000	-3.97367E-004	...........	-327.56
	190	479.092	3.52957E+000	3.52959E+000	-3.98713E-004	...........	-327.56
	191	481.6	3.52957E+000	3.52958E+000	-3.96680E-004	...........	-327.56
	192	484.108	3.52957E+000	3.52957E+000	-4.02033E-004	...........	-327.56
	193	486.617	3.52958E+000	3.52957E+000	-4.01560E-004	...........	-327.56
	194	489.125	3.52958E+000	3.52958E+000	-3.99187E-004	...........	-327.56
	195	491.633	3.52957E+000	3.52957E+000	-3.95653E-004	...........	-327.56
	196	494.142	3.52957E+000	3.52957E+000	-3.98420E-004	...........	-327.56
	197	496.65	3.52957E+000	3.52958E+000	-3.99207E-004	...........	-327.56
	198	499.158	3.52957E+000	3.52959E+000	-4.00813E-004	...........	-327.56
	199	501.667	3.52957E+000	3.52957E+000	-4.05747E-004	...........	-327.56
	200	504.175	3.52958E+000	3.52957E+000	-4.00280E-004	...........	-327.56
	201	506.683	3.52958E+000	3.52958E+000	-4.01360E-004	...........	-327.56
	202	509.192	3.52958E+000	3.52958E+000	-4.00160E-004	...........	-327.56
	203	511.7	3.52958E+000	3.52959E+000	-4.01473E-004	...........	-327.56
	204	514.208	3.52958E+000	3.52957E+000	-4.02820E-004	...........	-327.56
	205	516.717	3.52958E+000	3.52958E+000	-3.98473E-004	...........	-327.56
	206	519.225	3.52958E+000	3.52959E+000	-4.01340E-004	...........	-327.56
	207	521.733	3.52958E+000	3.52959E+000	-4.02833E-004	...........	-327.56
	208	524.242	3.52958E+000	3.52958E+000	-3.98267E-004	...........	-327.56
	209	526.75	3.52958E+000	3.52957E+000	-3.98640E-004	...........	-327.56
	210	529.258	3.52959E+000	3.52959E+000	-4.02027E-004	...........	-327.56
	211	531.767	3.52958E+000	3.52959E+000	-3.99120E-004	...........	-327.56
	212	534.275	3.52958E+000	3.52960E+000	-3.96873E-004	...........	-327.56
	213	536.783	3.52959E+000	3.52958E+000	-4.01553E-004	...........	-327.56
	214	539.292	3.52959E+000	3.52958E+000	-3.97153E-004	...........	-327.56
	215	541.8	3.52959E+000	3.52957E+000	-4.00300E-004	...........	-327.56
	216	544.308	3.52958E+000	3.52960E+000	-4.03720E-004	...........	-327.56
	217	546.817	3.52958E+000	3.52958E+000	-3.99873E-004	...........	-327.56
	218	549.325	3.52958E+000	3.52959E+000	-3.97313E-004	...........	-327.56
	219	551.833	3.52958E+000	3.52959E+000	-4.02327E-004	...........	-327.56
	220	554.342	3.52959E+000	3.52957E+000	-4.00347E-004	...........	-327.56
	221	556.85	3.52959E+000	3.52960E+000	-3.98280E-004	...........	-327.56
	222	559.358	3.52959E+000	3.52956E+000	-4.02987E-004	...........	-327.56
	223	561.867	3.52958E+000	3.52960E+000	-3.98167E-004	...........	-327.56
	224	564.375	3.52958E+000	3.52961E+000	-3.95747E-004	...........	-327.56
	225	566.883	3.52959E+000	3.52962E+000	-3.99747E-004	...........	-327.56
	226	569.392	3.52959E+000	3.52960E+000	-3.97913E-004	...........	-327.56
	227	571.9	3.52960E+000	3.52961E+000	-3.99707E-004	...........	-327.56
	228	574.408	3.52961E+000	3.52961E+000	-3.99740E-004	...........	-327.56
	229	576.917	3.52961E+000	3.52961E+000	-3.98733E-004	...........	-327.56
	230	579.425	3.52961E+000	3.52959E+000	-3.99460E-004	...........	-327.56
	231	581.933	3.52961E+000	3.52958E+000	-3.98007E-004	...........	-327.56
	232	584.442	3.52960E+000	3.52958E+000	-3.97847E-004	...........	-327.56
	233	586.95	3.52959E+000	3.52959E+000	-3.96227E-004	...........	-327.56
	234	589.458	3.52959E+000	3.52958E+000	-3.98033E-004	...........	-327.56
	235	591.967	3.52959E+000	3.52957E+000	-3.99800E-004	...........	-327.56
	236	594.475	3.52958E+000	3.52957E+000	-3.97827E-004	...........	-327.56
	237	596.983	3.52958E+000	3.52958E+000	-3.95787E-004	...........	-327.56
	238	599.492	3.52958E+000	3.52961E+000	-3.96227E-004	...........	-327.56
	239	602	3.52958E+000	3.52962E+000	-3.93447E-004	...........	-327.56
	240	604.508	3.52959E+000	3.52960E+000	-3.97513E-004	...........	-327.56
	241	607.017	3.52960E+000	3.52959E+000	-3.99613E-004	...........	-327.56
	242	609.525	3.52960E+000	3.52959E+000	-4.00540E-004	...........	-327.56
	243	612.033	3.52960E+000	3.52961E+000	-4.01267E-004	...........	-327.56
	244	614.542	3.52960E+000	3.52961E+000	-3.98600E-004	...........	-327.56
	245	617.05	3.52960E+000	3.52960E+000	-3.96060E-004	...........	-327.56
	246	619.558	3.52960E+000	3.52960E+000	-3.91113E-004	...........	-327.56
	247	622.067	3.52960E+000	3.52961E+000	-3.95933E-004	...........	-327.56
	248	624.575	3.52961E+000	3.52963E+000	-3.91507E-004	...........	-327.56
	249	627.083	3.52961E+000	3.52962E+000	-3.96013E-004	...........	-327.56
	250	629.592	3.52961E+000	3.52962E+000	-3.93840E-004	...........	-327.56
	251	632.1	3.52962E+000	3.52960E+000	-3.92520E-004	...........	-327.56
	252	634.608	3.52962E+000	3.52960E+000	-3.95740E-004	...........	-327.56
	253	637.117	3.52962E+000	3.52963E+000	-3.93680E-004	...........	-327.56
	254	639.625	3.52961E+000	3.52961E+000	-3.92560E-004	...........	-327.56
	255	642.133	3.52961E+000	3.52961E+000	-3.96047E-004	...........	-327.56
	256	644.642	3.52961E+000	3.52960E+000	-3.92527E-004	...........	-327.56
	257	647.15	3.52961E+000	3.52961E+000	-3.92320E-004	...........	-327.56
	258	649.658	3.52961E+000	3.52958E+000	-3.94020E-004	...........	-327.56
	259	652.167	3.52960E+000	3.52958E+000	-3.94860E-004	...........	-327.56
	260	654.675	3.52960E+000	3.52957E+000	-3.92273E-004	...........	-327.56
	261	657.183	3.52959E+000	3.52958E+000	-3.97753E-004	...........	-327.56
	262	659.692	3.52958E+000	3.52960E+000	-3.94380E-004	...........	-327.56
	263	662.2	3.52958E+000	3.52958E+000	-3.94767E-004	...........	-327.56
	264	664.708	3.52958E+000	3.52958E+000	-3.95760E-004	...........	-327.56
	265	667.217	3.52958E+000	3.52958E+000	-3.92100E-004	...........	-327.56
	266	669.725	3.52958E+000	3.52956E+000	-3.90640E-004	...........	-327.56
	267	672.233	3.52958E+000	3.52959E+000	-3.97547E-004	...........	-327.56
	268	674.742	3.52958E+000	3.52957E+000	-3.94800E-004	...........	-327.56
	269	677.25	3.52958E+000	3.52959E+000	-3.97687E-004	...........	-327.56
	270	679.758	3.52958E+000	3.52957E+000	-3.96387E-004	...........	-327.56
	271	682.267	3.52958E+000	3.52957E+000	-3.96607E-004	...........	-327.56
	272	684.775	3.52958E+000	3.52958E+000	-3.92240E-004	...........	-327.56
	273	687.283	3.52958E+000	3.52962E+000	-3.94960E-004	...........	-327.56
	274	689.792	3.52958E+000	3.52959E+000	-3.95913E-004	...........	-327.56
	275	692.3	3.52959E+000	3.52958E+000	-3.91860E-004	...........	-327.56
	276	694.808	3.52959E+000	3.52957E+000	-3.95127E-004	...........	-327.56
	277	697.317	3.52959E+000	3.52957E+000	-3.93247E-004	...........	-327.56
	278	699.825	3.52958E+000	3.52957E+000	-3.93893E-004	...........	-327.56
	279	702.333	3.52958E+000	3.52958E+000	-3.98260E-004	...........	-327.56
	280	704.842	3.52957E+000	3.52959E+000	-3.94900E-004	...........	-327.56
	281	707.35	3.52957E+000	3.52958E+000	-3.96267E-004	...........	-327.56
	282	709.858	3.52958E+000	3.52958E+000	-3.94893E-004	...........	-327.56
	283	712.367	3.52958E+000	3.52959E+000	-3.92400E-004	...........	-327.56
	284	714.875	3.52958E+000	3.52959E+000	-3.95053E-004	...........	-327.56
	285	717.383	3.52959E+000	3.52959E+000	-3.92867E-004	...........	-327.56
	286	719.892	3.52959E+000	3.52959E+000	-3.95653E-004	...........	-327.56
	287	722.4	3.52959E+000	3.52959E+000	-3.97933E-004	...........	-327.56
	288	724.908	3.52959E+000	3.52960E+000	-3.96533E-004	...........	-327.56
	289	727.417	3.52959E+000	3.52958E+000	-3.95507E-004	...........	-327.56
	290	729.925	3.52959E+000	3.52957E+000	-3.93873E-004	...........	-327.56
	291	732.433	3.52959E+000	3.52957E+000	-3.96793E-004	...........	-327.56
	292	734.942	3.52958E+000	3.52957E+000	-3.93313E-004	...........	-327.56
	293	737.45	3.52958E+000	3.52958E+000	-3.94833E-004	...........	-327.56
	294	739.958	3.52958E+000	3.52959E+000	-3.95760E-004	...........	-327.56
	295	742.467	3.52958E+000	3.52959E+000	-3.93807E-004	...........	-327.56
	296	744.975	3.52958E+000	3.52958E+000	-3.98313E-004	...........	-327.56
	297	747.483	3.52958E+000	3.52958E+000	-3.92773E-004	...........	-327.56
	298	749.992	3.52958E+000	3.52958E+000	-3.92240E-004	...........	-327.56
	299	752.5	3.52958E+000	3.52958E+000	-3.98113E-004	...........	-327.56
	300	755.008	3.52958E+000	3.52958E+000	-3.98893E-004	...........	-327.56
	301	757.517	3.52958E+000	3.52959E+000	-3.94027E-004	...........	-327.56
	302	760.025	3.52958E+000	3.52957E+000	-3.93680E-004	...........	-327.56
	303	762.533	3.52958E+000	3.52957E+000	-3.95113E-004	...........	-327.56
	304	765.042	3.52958E+000	3.52959E+000	-3.94213E-004	...........	-327.56
	305	767.55	3.52958E+000	3.52963E+000	-3.95573E-004	...........	-327.56
	306	770.058	3.52958E+000	3.52960E+000	-3.95820E-004	...........	-327.56
	307	772.567	3.52959E+000	3.52962E+000	-3.97067E-004	...........	-327.56
	308	775.075	3.52960E+000	3.52961E+000	-3.95013E-004	...........	-327.56
	309	777.583	3.52961E+000	3.52960E+000	-3.96840E-004	...........	-327.56
	310	780.092	3.52961E+000	3.52960E+000	-4.03740E-004	...........	-327.56
	311	782.6	3.52961E+000	3.52961E+000	-4.02467E-004	...........	-327.56
	312	785.108	3.52961E+000	3.52961E+000	-3.96180E-004	...........	-327.56
	313	787.617	3.52961E+000	3.52962E+000	-4.01147E-004	...........	-327.56
	314	790.125	3.52961E+000	3.52961E+000	-3.96807E-004	...........	-327.56
	315	792.633	3.52961E+000	3.52960E+000	-3.99913E-004	...........	-327.56
	316	795.142	3.52961E+000	3.52961E+000	-3.96187E-004	...........	-327.56
	317	797.65	3.52961E+000	3.52958E+000	-3.97207E-004	...........	-327.56
	318	800.158	3.52961E+000	3.52959E+000	-3.95767E-004	...........	-327.56
	319	802.667	3.52960E+000	3.52957E+000	-3.96927E-004	...........	-327.56
	320	805.175	3.52959E+000	3.52957E+000	-3.99633E-004	...........	-327.56
	321	807.683	3.52958E+000	3.52958E+000	-3.96860E-004	...........	-327.56
	322	810.192	3.52958E+000	3.52957E+000	-3.96620E-004	...........	-327.56
	323	812.7	3.52957E+000	3.52958E+000	-3.98527E-004	...........	-327.56
	324	815.208	3.52957E+000	3.52956E+000	-3.92647E-004	...........	-327.56
	325	817.717	3.52957E+000	3.52957E+000	-4.00573E-004	...........	-327.56
	326	820.225	3.52957E+000	3.52957E+000	-3.95607E-004	...........	-327.56
	327	822.733	3.52957E+000	3.52958E+000	-3.99147E-004	...........	-327.56
	328	825.242	3.52957E+000	3.52957E+000	-3.96280E-004	...........	-327.56
	329	827.75	3.52957E+000	3.52958E+000	-3.94007E-004	...........	-327.56
	330	830.258	3.52957E+000	3.52958E+000	-3.95673E-004	...........	-327.56
	331	832.767	3.52958E+000	3.52959E+000	-3.95400E-004	...........	-327.56
	332	835.275	3.52958E+000	3.52960E+000	-3.92747E-004	...........	-327.56
	333	837.783	3.52958E+000	3.52959E+000	-3.94440E-004	...........	-327.56
	334	840.292	3.52959E+000	3.52960E+000	-4.02167E-004	...........	-327.56
	335	842.8	3.52959E+000	3.52959E+000	-3.99733E-004	...........	-327.56
	336	845.308	3.52960E+000	3.52959E+000	-4.00373E-004	...........	-327.56
	337	847.817	3.52959E+000	3.52958E+000	-3.96767E-004	...........	-327.56
	338	850.325	3.52959E+000	3.52959E+000	-3.99220E-004	...........	-327.56
	339	852.833	3.52959E+000	3.52960E+000	-4.00800E-004	...........	-327.56
	340	855.342	3.52959E+000	3.52959E+000	-4.00527E-004	...........	-327.56
	341	857.85	3.52959E+000	3.52957E+000	-3.98580E-004	...........	-327.56
	342	860.358	3.52959E+000	3.52958E+000	-3.99427E-004	...........	-327.56
	343	862.867	3.52959E+000	3.52960E+000	-3.99413E-004	...........	-327.56
	344	865.375	3.52958E+000	3.52958E+000	-4.02500E-004	...........	-327.56
	345	867.883	3.52959E+000	3.52959E+000	-3.98713E-004	...........	-327.56
	346	870.392	3.52959E+000	3.52959E+000	-4.00853E-004	...........	-327.56
	347	872.9	3.52959E+000	3.52959E+000	-4.00007E-004	...........	-327.56
	348	875.408	3.52959E+000	3.52957E+000	-3.99693E-004	...........	-327.56
	349	877.917	3.52959E+000	3.52959E+000	-3.98120E-004	...........	-327.56
	350	880.425	3.52958E+000	3.52957E+000	-3.99860E-004	...........	-327.56
	351	882.933	3.52958E+000	3.52956E+000	-3.99473E-004	...........	-327.56
	352	885.442	3.52958E+000	3.52958E+000	-4.00613E-004	...........	-327.56
	353	887.95	3.52957E+000	3.52957E+000	-3.98527E-004	...........	-327.56
	354	890.458	3.52957E+000	3.52958E+000	-4.01407E-004	...........	-327.56
	355	892.967	3.52957E+000	3.52958E+000	-3.96307E-004	...........	-327.56
	356	895.475	3.52958E+000	3.52958E+000	-3.98000E-004	...........	-327.56
	357	897.983	3.52958E+000	3.52957E+000	-4.00460E-004	...........	-327.56
	358	900.492	3.52958E+000	3.52957E+000	-3.97273E-004	...........	-327.56
	359	903	3.52958E+000	3.52958E+000	-3.96620E-004	...........	-327.56
	360	905.508	3.52957E+000	3.52958E+000	-3.99420E-004	...........	-327.56
	361	908.017	3.52957E+000	3.52959E+000	-3.97487E-004	...........	-327.56
	362	910.525	3.52957E+000	3.52959E+000	-3.95440E-004	...........	-327.56
	363	913.033	3.52958E+000	3.52960E+000	-3.99933E-004	...........	-327.56
	364	915.542	3.52958E+000	3.52958E+000	-3.96100E-004	...........	-327.56
	365	918.05	3.52959E+000	3.52957E+000	-3.99640E-004	...........	-327.56
	366	920.558	3.52959E+000	3.52957E+000	-3.98253E-004	...........	-327.56
	367	923.067	3.52958E+000	3.52959E+000	-3.97260E-004	...........	-327.56
	368	925.575	3.52958E+000	3.52958E+000	-3.99473E-004	...........	-327.56
	369	928.083	3.52958E+000	3.52959E+000	-3.98007E-004	...........	-327.56
	370	930.592	3.52958E+000	3.52959E+000	-4.01147E-004	...........	-327.56
	371	933.1	3.52958E+000	3.52957E+000	-4.05900E-004	...........	-327.56
	372	935.608	3.52958E+000	3.52957E+000	-3.99500E-004	...........	-327.56
	373	938.117	3.52958E+000	3.52959E+000	-4.05040E-004	...........	-327.56
	374	940.625	3.52958E+000	3.52958E+000	-4.00507E-004	...........	-327.56
	375	943.133	3.52958E+000	3.52959E+000	-4.03273E-004	...........	-327.56
	376	945.642	3.52958E+000	3.52959E+000	-4.00727E-004	...........	-327.56
	377	948.15	3.52958E+000	3.52959E+000	-4.01313E-004	...........	-327.56
	378	950.66	3.52959E+000	3.52960E+000	-3.99713E-004	...........	-327.56
	379	953.17	3.52959E+000	3.52959E+000	-3.98820E-004	...........	-327.56
	380	955.68	3.52959E+000	3.52959E+000	-3.96640E-004	...........	-327.56
	381	958.18	3.52959E+000	3.52957E+000	-4.02867E-004	...........	-327.56
	382	960.69	3.52959E+000	3.52958E+000	-3.98167E-004	...........	-327.56
	383	963.2	3.52959E+000	3.52957E+000	-4.00880E-004	...........	-327.56
	384	965.71	3.52958E+000	3.52959E+000	-4.00120E-004	...........	-327.56
	385	968.22	3.52958E+000	3.52959E+000	-4.00173E-004	...........	-327.56
	386	970.73	3.52958E+000	3.52959E+000	-3.99433E-004	...........	-327.56
	387	973.23	3.52958E+000	3.52959E+000	-3.98580E-004	...........	-327.56
	388	975.74	3.52959E+000	3.52960E+000	-3.97400E-004	...........	-327.56
	389	978.25	3.52959E+000	3.52959E+000	-3.97620E-004	...........	-327.56
	390	980.76	3.52959E+000	3.52960E+000	-3.95013E-004	...........	-327.56
	391	983.27	3.52959E+000	3.52959E+000	-3.97373E-004	...........	-327.56
	392	985.78	3.52959E+000	3.52958E+000	-3.96393E-004	...........	-327.56
	393	988.28	3.52959E+000	3.52958E+000	-3.97560E-004	...........	-327.56
	394	990.79	3.52959E+000	3.52959E+000	-3.99647E-004	...........	-327.56
	395	993.3	3.52959E+000	3.52958E+000	-3.96953E-004	...........	-327.56
	396	995.81	3.52959E+000	3.52960E+000	-3.97893E-004	...........	-327.56
	397	998.32	3.52959E+000	3.52959E+000	-3.92627E-004	...........	-327.56
	398	1000.83	3.52959E+000	3.52960E+000	-3.95673E-004	...........	-327.56
	399	1003.33	3.52959E+000	3.52958E+000	-3.96127E-004	...........	-327.56
	400	1005.84	3.52959E+000	3.52960E+000	-3.93827E-004	...........	-327.56
	401	1008.35	3.52959E+000	3.52959E+000	-3.98287E-004	...........	-327.56
	402	1010.86	3.52959E+000	3.52959E+000	-3.96367E-004	...........	-327.56
	403	1013.37	3.52959E+000	3.52960E+000	-3.97900E-004	...........	-327.56
	404	1015.88	3.52959E+000	3.52959E+000	-3.97567E-004	...........	-327.56
	405	1018.38	3.52959E+000	3.52959E+000	-3.98233E-004	...........	-327.56
	406	1020.89	3.52959E+000	3.52959E+000	-4.03067E-004	...........	-327.56
	407	1023.4	3.52959E+000	3.52959E+000	-4.01347E-004	...........	-327.56
	408	1025.91	3.52959E+000	3.52958E+000	-3.98460E-004	...........	-327.56
	409	1028.42	3.52959E+000	3.52960E+000	-3.96693E-004	...........	-327.56
	410	1030.93	3.52959E+000	3.52956E+000	-3.95367E-004	...........	-327.56
	411	1033.43	3.52959E+000	3.52960E+000	-4.01493E-004	...........	-327.56
	412	1035.94	3.52959E+000	3.52958E+000	-3.98647E-004	...........	-327.56
	413	1038.45	3.52959E+000	3.52958E+000	-4.00640E-004	...........	-327.56
	414	1040.96	3.52959E+000	3.52959E+000	-3.96513E-004	...........	-327.56
	415	1043.47	3.52959E+000	3.52959E+000	-3.91520E-004	...........	-327.56
	416	1045.98	3.52959E+000	3.52960E+000	-3.97060E-004	...........	-327.56
	417	1048.48	3.52959E+000	3.52959E+000	-4.01193E-004	...........	-327.56
	418	1050.99	3.52959E+000	3.52959E+000	-4.00693E-004	...........	-327.56
	419	1053.5	3.52959E+000	3.52959E+000	-4.01573E-004	...........	-327.56
	420	1056.01	3.52959E+000	3.52958E+000	-4.03500E-004	...........	-327.56
	421	1058.52	3.52959E+000	3.52959E+000	-3.97213E-004	...........	-327.56
	422	1061.03	3.52959E+000	3.52958E+000	-3.99353E-004	...........	-327.56
	423	1063.53	3.52959E+000	3.52959E+000	-4.00580E-004	...........	-327.56
	424	1066.04	3.52959E+000	3.52959E+000	-4.01320E-004	...........	-327.56
	425	1068.55	3.52959E+000	3.52960E+000	-3.99240E-004	...........	-327.56
	426	1071.06	3.52959E+000	3.52959E+000	-3.97613E-004	...........	-327.56
	427	1073.57	3.52959E+000	3.52959E+000	-4.00800E-004	...........	-327.56
	428	1076.08	3.52959E+000	3.52960E+000	-4.00260E-004	...........	-327.56
	429	1078.58	3.52959E+000	3.52960E+000	-3.97360E-004	...........	-327.56
	430	1081.09	3.52959E+000	3.52960E+000	-3.95780E-004	...........	-327.56
	431	1083.6	3.52959E+000	3.52960E+000	-3.97827E-004	...........	-327.56
	432	1086.11	3.52960E+000	3.52959E+000	-3.99993E-004	...........	-327.56
	433	1088.62	3.52960E+000	3.52960E+000	-4.00040E-004	...........	-327.56
	434	1091.13	3.52960E+000	3.52959E+000	-3.97280E-004	...........	-327.56
	435	1093.63	3.52959E+000	3.52959E+000	-4.02080E-004	...........	-327.56
	436	1096.14	3.52959E+000	3.52959E+000	-4.00120E-004	...........	-327.56
	437	1098.65	3.52959E+000	3.52959E+000	-3.98987E-004	...........	-327.56
	438	1101.16	3.52959E+000	3.52959E+000	-3.95887E-004	...........	-327.56
	439	1103.67	3.52959E+000	3.52958E+000	-3.96080E-004	...........	-327.56
	440	1106.18	3.52959E+000	3.52959E+000	-3.99347E-004	...........	-327.56
	441	1108.68	3.52959E+000	3.52959E+000	-3.96093E-004	...........	-327.56
	442	1111.19	3.52959E+000	3.52959E+000	-3.96293E-004	...........	-327.56
	443	1113.7	3.52959E+000	3.52959E+000	-4.01027E-004	...........	-327.56
	444	1116.21	3.52959E+000	3.52959E+000	-3.94187E-004	...........	-327.56
	445	1118.72	3.52959E+000	3.52959E+000	-3.96087E-004	...........	-327.56
	446	1121.23	3.52959E+000	3.52960E+000	-3.94500E-004	...........	-327.56
	447	1123.73	3.52959E+000	3.52960E+000	-3.94987E-004	...........	-327.56
	448	1126.24	3.52959E+000	3.52959E+000	-3.99067E-004	...........	-327.56
	449	1128.75	3.52959E+000	3.52961E+000	-3.96853E-004	...........	-327.56
	450	1131.26	3.52960E+000	3.52959E+000	-3.97387E-004	...........	-327.56
	451	1133.77	3.52960E+000	3.52958E+000	-3.98027E-004	...........	-327.56
	452	1136.28	3.52960E+000	3.52960E+000	-3.96913E-004	...........	-327.56
	453	1138.78	3.52959E+000	3.52959E+000	-3.92927E-004	...........	-327.56
	454	1141.29	3.52959E+000	3.52960E+000	-3.96573E-004	...........	-327.56
	455	1143.8	3.52959E+000	3.52959E+000	-3.92180E-004	...........	-327.56
	456	1146.31	3.52959E+000	3.52959E+000	-3.96727E-004	...........	-327.56
	457	1148.82	3.52959E+000	3.52957E+000	-3.94513E-004	...........	-327.56
	458	1151.33	3.52959E+000	3.52961E+000	-4.00833E-004	...........	-327.56
	459	1153.83	3.52959E+000	3.52959E+000	-4.02967E-004	...........	-327.56
	460	1156.34	3.52959E+000	3.52959E+000	-4.00727E-004	...........	-327.56
	461	1158.85	3.52959E+000	3.52957E+000	-3.99713E-004	...........	-327.56
	462	1161.36	3.52959E+000	3.52958E+000	-4.03833E-004	...........	-327.56
	463	1163.87	3.52959E+000	3.52961E+000	-4.00640E-004	...........	-327.56
	464	1166.38	3.52959E+000	3.52958E+000	-3.96973E-004	...........	-327.56
	465	1168.88	3.52959E+000	3.52958E+000	-3.99640E-004	...........	-327.56
	466	1171.39	3.52959E+000	3.52959E+000	-3.96840E-004	...........	-327.56
	467	1173.9	3.52959E+000	3.52958E+000	-3.96087E-004	...........	-327.56
	468	1176.41	3.52958E+000	3.52960E+000	-4.02313E-004	...........	-327.56
	469	1178.92	3.52959E+000	3.52959E+000	-3.99807E-004	...........	-327.56
	470	1181.43	3.52959E+000	3.52958E+000	-3.99627E-004	...........	-327.56
	471	1183.93	3.52959E+000	3.52957E+000	-3.96313E-004	...........	-327.56
	472	1186.44	3.52959E+000	3.52959E+000	-3.99720E-004	...........	-327.56
	473	1188.95	3.52959E+000	3.52959E+000	-3.94860E-004	...........	-327.56
	474	1191.46	3.52959E+000	3.52959E+000	-3.93453E-004	...........	-327.56
	475	1193.97	3.52959E+000	3.52960E+000	-3.94027E-004	...........	-327.56
	476	1196.48	3.52959E+000	3.52959E+000	-3.91980E-004	...........	-327.56
	477	1198.98	3.52959E+000	3.52959E+000	-3.92220E-004	...........	-327.56
	478	1201.49	3.52959E+000	3.52960E+000	-3.94473E-004	...........	-327.56
	479	1204	3.52959E+000	3.52959E+000	-3.92147E-004	...........	-327.56
	480	1206.51	3.52959E+000	3.52959E+000	-3.92767E-004	...........	-327.56
	481	1209.02	3.52959E+000	3.52958E+000	-3.95233E-004	...........	-327.56
	482	1211.53	3.52959E+000	3.52959E+000	-3.94767E-004	...........	-327.56
	483	1214.03	3.52959E+000	3.52960E+000	-3.94020E-004	...........	-327.56
	484	1216.54	3.52959E+000	3.52961E+000	-4.01280E-004	...........	-327.56
	485	1219.05	3.52960E+000	3.52960E+000	-3.97000E-004	...........	-327.56
	486	1221.56	3.52960E+000	3.52961E+000	-3.99253E-004	...........	-327.56
	487	1224.07	3.52960E+000	3.52962E+000	-3.98167E-004	...........	-327.56
	488	1226.58	3.52961E+000	3.52962E+000	-3.98120E-004	...........	-327.56
	489	1229.08	3.52961E+000	3.52960E+000	-4.01987E-004	...........	-327.56
	490	1231.59	3.52961E+000	3.52961E+000	-4.00887E-004	...........	-327.56
	491	1234.1	3.52961E+000	3.52961E+000	-4.03147E-004	...........	-327.56
	492	1236.61	3.52961E+000	3.52963E+000	-3.92080E-004	...........	-327.56
	493	1239.12	3.52961E+000	3.52960E+000	-3.99847E-004	...........	-327.56
	494	1241.63	3.52961E+000	3.52961E+000	-3.96633E-004	...........	-327.56
	495	1244.13	3.52961E+000	3.52959E+000	-4.00073E-004	...........	-327.56
	496	1246.64	3.52961E+000	3.52959E+000	-3.96060E-004	...........	-327.56
	497	1249.15	3.52960E+000	3.52958E+000	-3.98120E-004	...........	-327.56
	498	1251.66	3.52960E+000	3.52959E+000	-4.00353E-004	...........	-327.56
	499	1254.17	3.52959E+000	3.52960E+000	-4.03027E-004	...........	-327.56
	500	1256.68	3.52959E+000	3.52958E+000	-4.00333E-004	...........	-327.56
	501	1259.18	3.52959E+000	3.52959E+000	-3.97027E-004	...........	-327.56
	502	1261.69	3.52959E+000	3.52959E+000	-3.98093E-004	...........	-327.56
	503	1264.2	3.52959E+000	3.52959E+000	-3.97313E-004	...........	-327.56
	504	1266.71	3.52959E+000	3.52957E+000	-3.95553E-004	...........	-327.56
	505	1269.22	3.52959E+000	3.52959E+000	-4.02340E-004	...........	-327.56
	506	1271.73	3.52959E+000	3.52959E+000	-4.01707E-004	...........	-327.56
	507	1274.23	3.52958E+000	3.52959E+000	-3.96540E-004	...........	-327.56
	508	1276.74	3.52958E+000	3.52958E+000	-3.97733E-004	...........	-327.56
	509	1279.25	3.52959E+000	3.52957E+000	-3.97453E-004	...........	-327.56
	510	1281.76	3.52958E+000	3.52959E+000	-3.96993E-004	...........	-327.56
	511	1284.27	3.52958E+000	3.52958E+000	-3.98247E-004	...........	-327.56
	512	1286.78	3.52958E+000	3.52957E+000	-3.96540E-004	...........	-327.56
	513	1289.28	3.52958E+000	3.52958E+000	-3.94920E-004	...........	-327.56
	514	1291.79	3.52958E+000	3.52959E+000	-3.94073E-004	...........	-327.56
	515	1294.3	3.52958E+000	3.52958E+000	-3.99140E-004	...........	-327.56
	516	1296.81	3.52958E+000	3.52959E+000	-3.99993E-004	...........	-327.56
	517	1299.32	3.52958E+000	3.52958E+000	-3.96393E-004	...........	-327.56
	518	1301.83	3.52958E+000	3.52959E+000	-3.96607E-004	...........	-327.56
	519	1304.33	3.52959E+000	3.52959E+000	-3.96140E-004	...........	-327.56
	520	1306.84	3.52959E+000	3.52957E+000	-3.95780E-004	...........	-327.56
	521	1309.35	3.52959E+000	3.52959E+000	-4.01733E-004	...........	-327.56
	522	1311.86	3.52959E+000	3.52959E+000	-4.00207E-004	...........	-327.56
	523	1314.37	3.52959E+000	3.52958E+000	-3.99033E-004	...........	-327.56
	524	1316.88	3.52959E+000	3.52956E+000	-3.99753E-004	...........	-327.56
	525	1319.38	3.52958E+000	3.52958E+000	-4.01633E-004	...........	-327.56
	526	1321.89	3.52958E+000	3.52959E+000	-4.02147E-004	...........	-327.56
	527	1324.4	3.52958E+000	3.52960E+000	-4.02827E-004	...........	-327.56
	528	1326.91	3.52958E+000	3.52959E+000	-4.01053E-004	...........	-327.56
	529	1329.42	3.52959E+000	3.52958E+000	-3.97307E-004	...........	-327.56
	530	1331.93	3.52959E+000	3.52959E+000	-3.95867E-004	...........	-327.56
	531	1334.43	3.52959E+000	3.52959E+000	-3.99487E-004	...........	-327.56
	532	1336.94	3.52959E+000	3.52957E+000	-4.01547E-004	...........	-327.56
	533	1339.45	3.52959E+000	3.52960E+000	-3.98740E-004	...........	-327.56
	534	1341.96	3.52958E+000	3.52958E+000	-3.99500E-004	...........	-327.56
	535	1344.47	3.52959E+000	3.52957E+000	-3.97553E-004	...........	-327.56
	536	1346.98	3.52959E+000	3.52960E+000	-3.97153E-004	...........	-327.56
	537	1349.48	3.52958E+000	3.52959E+000	-4.04127E-004	...........	-327.56
	538	1351.99	3.52959E+000	3.52960E+000	-4.01773E-004	...........	-327.56
	539	1354.5	3.52959E+000	3.52958E+000	-4.01193E-004	...........	-327.56
	540	1357.01	3.52959E+000	3.52961E+000	-4.01013E-004	...........	-327.56
	541	1359.52	3.52959E+000	3.52958E+000	-3.96580E-004	...........	-327.56
	542	1362.03	3.52959E+000	3.52960E+000	-4.00473E-004	...........	-327.56
	543	1364.53	3.52959E+000	3.52959E+000	-3.98693E-004	...........	-327.56
	544	1367.04	3.52959E+000	3.52960E+000	-4.00660E-004	...........	-327.56
	545	1369.55	3.52959E+000	3.52959E+000	-4.06133E-004	...........	-327.56
	546	1372.06	3.52959E+000	3.52958E+000	-4.01440E-004	...........	-327.56
	547	1374.57	3.52959E+000	3.52960E+000	-4.00793E-004	...........	-327.56
	548	1377.08	3.52959E+000	3.52958E+000	-4.02987E-004	...........	-327.56
	549	1379.58	3.52959E+000	3.52959E+000	-4.04780E-004	...........	-327.56
	550	1382.09	3.52959E+000	3.52959E+000	-4.01587E-004	...........	-327.56
	551	1384.6	3.52959E+000	3.52958E+000	-4.00320E-004	...........	-327.56
	552	1387.11	3.52959E+000	3.52958E+000	-3.98700E-004	...........	-327.56
	553	1389.62	3.52959E+000	3.52959E+000	-3.96627E-004	...........	-327.56
	554	1392.13	3.52958E+000	3.52958E+000	-3.94873E-004	...........	-327.56
	555	1394.63	3.52958E+000	3.52958E+000	-3.98247E-004	...........	-327.56
	556	1397.14	3.52958E+000	3.52959E+000	-3.93860E-004	...........	-327.56
	557	1399.65	3.52958E+000	3.52961E+000	-3.95107E-004	...........	-327.56
	558	1402.16	3.52959E+000	3.52959E+000	-3.99387E-004	...........	-327.56
	559	1404.67	3.52959E+000	3.52958E+000	-3.97813E-004	...........	-327.56
	560	1407.18	3.52959E+000	3.52958E+000	-3.99860E-004	...........	-327.56
	561	1409.68	3.52959E+000	3.52958E+000	-3.96240E-004	...........	-327.56
	562	1412.19	3.52959E+000	3.52958E+000	-3.98507E-004	...........	-327.56
	563	1414.7	3.52958E+000	3.52958E+000	-4.00593E-004	...........	-327.56
	564	1417.21	3.52958E+000	3.52958E+000	-3.95473E-004	...........	-327.56
	565	1419.72	3.52958E+000	3.52958E+000	-3.98267E-004	...........	-327.56
	566	1422.23	3.52958E+000	3.52958E+000	-3.97707E-004	...........	-327.56
	567	1424.73	3.52958E+000	3.52958E+000	-4.00513E-004	...........	-327.56
	568	1427.24	3.52958E+000	3.52958E+000	-4.03007E-004	...........	-327.56
	569	1429.75	3.52958E+000	3.52959E+000	-3.97280E-004	...........	-327.56
	570	1432.26	3.52958E+000	3.52959E+000	-3.99100E-004	...........	-327.56
	571	1434.77	3.52959E+000	3.52959E+000	-4.02867E-004	...........	-327.56
	572	1437.28	3.52959E+000	3.52960E+000	-4.02480E-004	...........	-327.56
	573	1439.78	3.52959E+000	3.52960E+000	-3.99887E-004	...........	-327.56
	574	1442.29	3.52959E+000	3.52959E+000	-4.03007E-004	...........	-327.56
	575	1444.8	3.52959E+000	3.52958E+000	-4.07440E-004	...........	-327.56
	576	1447.31	3.52959E+000	3.52962E+000	-4.05333E-004	...........	-327.56
	577	1449.82	3.52959E+000	3.52958E+000	-4.01860E-004	...........	-327.56
	578	1452.33	3.52959E+000	3.52959E+000	-4.03367E-004	...........	-327.56
	579	1454.83	3.52959E+000	3.52960E+000	-4.00247E-004	...........	-327.56
	580	1457.34	3.52959E+000	3.52960E+000	-4.02040E-004	...........	-327.56
	581	1459.85	3.52959E+000	3.52960E+000	-4.01787E-004	...........	-327.56
	582	1462.36	3.52960E+000	3.52959E+000	-4.04613E-004	...........	-327.56
	583	1464.87	3.52960E+000	3.52960E+000	-4.08213E-004	...........	-327.56
	584	1467.38	3.52960E+000	3.52957E+000	-4.04513E-004	...........	-327.56
	585	1469.88	3.52959E+000	3.52957E+000	-4.03840E-004	...........	-327.56
	586	1472.39	3.52959E+000	3.52959E+000	-4.04260E-004	...........	-327.56
	587	1474.9	3.52958E+000	3.52959E+000	-4.00293E-004	...........	-327.56
	588	1477.41	3.52958E+000	3.52959E+000	-4.05567E-004	...........	-327.56
	589	1479.92	3.52959E+000	3.52958E+000	-3.99493E-004	...........	-327.56
	590	1482.43	3.52959E+000	3.52959E+000	-4.02780E-004	...........	-327.56
	591	1484.93	3.52959E+000	3.52960E+000	-4.03107E-004	...........	-327.56
	592	1487.44	3.52959E+000	3.52959E+000	-4.01987E-004	...........	-327.56
	593	1489.95	3.52959E+000	3.52958E+000	-4.01247E-004	...........	-327.56
	594	1492.46	3.52959E+000	3.52960E+000	-4.02553E-004	...........	-327.56
	595	1494.97	3.52959E+000	3.52960E+000	-4.04360E-004	...........	-327.56
	596	1497.48	3.52959E+000	3.52958E+000	-3.99253E-004	...........	-327.56
	597	1499.98	3.52959E+000	3.52960E+000	-4.00007E-004	...........	-327.56
	598	1502.49	3.52959E+000	3.52957E+000	-3.95773E-004	...........	-327.56
	599	1505	3.52959E+000	3.52960E+000	-3.96273E-004	...........	-327.56
	600	1507.51	3.52959E+000	3.52958E+000	-3.96913E-004	...........	-327.56
	601	1510.02	3.52959E+000	3.52957E+000	-3.99373E-004	...........	-327.56
	602	1512.53	3.52958E+000	3.52958E+000	-3.99093E-004	...........	-327.56
	603	1515.03	3.52958E+000	3.52959E+000	-4.01293E-004	...........	-327.56
	604	1517.54	3.52958E+000	3.52961E+000	-3.95333E-004	...........	-327.56
	605	1520.05	3.52958E+000	3.52961E+000	-3.98820E-004	...........	-327.56
	606	1522.56	3.52959E+000	3.52959E+000	-3.99100E-004	...........	-327.56
	607	1525.07	3.52960E+000	3.52957E+000	-3.99493E-004	...........	-327.56
	608	1527.58	3.52960E+000	3.52960E+000	-4.01600E-004	...........	-327.56
	609	1530.08	3.52959E+000	3.52960E+000	-3.97560E-004	...........	-327.56
	610	1532.59	3.52959E+000	3.52958E+000	-4.00673E-004	...........	-327.56
	611	1535.1	3.52959E+000	3.52957E+000	-3.96653E-004	...........	-327.56
	612	1537.61	3.52959E+000	3.52958E+000	-4.00307E-004	...........	-327.56
	613	1540.12	3.52959E+000	3.52960E+000	-3.98393E-004	...........	-327.56
	614	1542.63	3.52958E+000	3.52960E+000	-3.98547E-004	...........	-327.56
	615	1545.13	3.52959E+000	3.52959E+000	-3.94280E-004	...........	-327.56
	616	1547.64	3.52959E+000	3.52960E+000	-4.06393E-004	...........	-327.56
	617	1550.15	3.52959E+000	3.52959E+000	-4.04093E-004	...........	-327.56
	618	1552.66	3.52960E+000	3.52957E+000	-4.06200E-004	...........	-327.56
	619	1555.17	3.52959E+000	3.52959E+000	-4.02587E-004	...........	-327.56
	620	1557.68	3.52959E+000	3.52960E+000	-4.02980E-004	...........	-327.56
	621	1560.18	3.52959E+000	3.52960E+000	-3.97667E-004	...........	-327.56
	622	1562.69	3.52959E+000	3.52959E+000	-4.00687E-004	...........	-327.56
	623	1565.2	3.52959E+000	3.52957E+000	-4.03780E-004	...........	-327.56
	624	1567.71	3.52959E+000	3.52957E+000	-4.00873E-004	...........	-327.56
	625	1570.22	3.52959E+000	3.52959E+000	-4.00127E-004	...........	-327.56
	626	1572.73	3.52958E+000	3.52960E+000	-3.99320E-004	...........	-327.56
	627	1575.23	3.52958E+000	3.52958E+000	-3.97313E-004	...........	-327.56
	628	1577.74	3.52958E+000	3.52959E+000	-3.96040E-004	...........	-327.56
	629	1580.25	3.52959E+000	3.52958E+000	-3.99627E-004	...........	-327.56
	630	1582.76	3.52959E+000	3.52958E+000	-3.97987E-004	...........	-327.56
	631	1585.27	3.52959E+000	3.52958E+000	-3.97480E-004	...........	-327.56
	632	1587.78	3.52958E+000	3.52957E+000	-3.94147E-004	...........	-327.56
	633	1590.28	3.52958E+000	3.52959E+000	-4.00467E-004	...........	-327.56
	634	1592.79	3.52958E+000	3.52957E+000	-3.99847E-004	...........	-327.56
	635	1595.3	3.52958E+000	3.52956E+000	-4.02647E-004	...........	-327.56
	636	1597.81	3.52958E+000	3.52958E+000	-3.99167E-004	...........	-327.56
	637	1600.32	3.52957E+000	3.52958E+000	-4.00653E-004	...........	-327.56
	638	1602.83	3.52957E+000	3.52958E+000	-3.98993E-004	...........	-327.56
	639	1605.33	3.52957E+000	3.52957E+000	-3.93947E-004	...........	-327.56
	640	1607.84	3.52958E+000	3.52960E+000	-3.97227E-004	...........	-327.56
	641	1610.35	3.52958E+000	3.52960E+000	-3.97393E-004	...........	-327.56
	642	1612.86	3.52959E+000	3.52959E+000	-3.95693E-004	...........	-327.56
	643	1615.37	3.52959E+000	3.52958E+000	-3.94453E-004	...........	-327.56
	644	1617.88	3.52959E+000	3.52959E+000	-3.92847E-004	...........	-327.56
	645	1620.38	3.52959E+000	3.52959E+000	-3.99340E-004	...........	-327.56
	646	1622.89	3.52959E+000	3.52958E+000	-3.98347E-004	...........	-327.56
	647	1625.4	3.52959E+000	3.52958E+000	-3.97407E-004	...........	-327.56
	648	1627.91	3.52958E+000	3.52960E+000	-4.03020E-004	...........	-327.56
	649	1630.42	3.52958E+000	3.52959E+000	-3.99827E-004	...........	-327.56
	650	1632.93	3.52959E+000	3.52959E+000	-3.98093E-004	...........	-327.56
	651	1635.43	3.52959E+000	3.52959E+000	-3.99880E-004	...........	-327.56
	652	1637.94	3.52959E+000	3.52958E+000	-3.95513E-004	...........	-327.56
	653	1640.45	3.52959E+000	3.52959E+000	-4.02507E-004	...........	-327.56
	654	1642.96	3.52959E+000	3.52959E+000	-3.99753E-004	...........	-327.56
	655	1645.47	3.52959E+000	3.52959E+000	-4.00280E-004	...........	-327.56
	656	1647.98	3.52959E+000	3.52959E+000	-3.99900E-004	...........	-327.56
	657	1650.48	3.52959E+000	3.52959E+000	-4.00080E-004	...........	-327.56
	658	1652.99	3.52959E+000	3.52959E+000	-3.96733E-004	...........	-327.56
	659	1655.5	3.52959E+000	3.52959E+000	-3.98940E-004	...........	-327.56
	660	1658.01	3.52959E+000	3.52959E+000	-4.01293E-004	...........	-327.56
	661	1660.52	3.52959E+000	3.52957E+000	-3.99593E-004	...........	-327.56
	662	1663.03	3.52959E+000	3.52957E+000	-4.00773E-004	...........	-327.56
	663	1665.53	3.52959E+000	3.52960E+000	-4.02853E-004	...........	-327.56
	664	1668.04	3.52958E+000	3.52958E+000	-4.01047E-004	...........	-327.56
	665	1670.55	3.52958E+000	3.52960E+000	-3.99893E-004	...........	-327.56
	666	1673.06	3.52959E+000	3.52957E+000	-3.99273E-004	...........	-327.56
	667	1675.57	3.52959E+000	3.52958E+000	-3.99400E-004	...........	-327.56
	668	1678.08	3.52959E+000	3.52960E+000	-4.01060E-004	...........	-327.56
	669	1680.58	3.52959E+000	3.52959E+000	-4.01467E-004	...........	-327.56
	670	1683.09	3.52959E+000	3.52960E+000	-4.02887E-004	...........	-327.56
	671	1685.6	3.52959E+000	3.52958E+000	-3.94607E-004	...........	-327.56
	672	1688.11	3.52959E+000	3.52958E+000	-4.01520E-004	...........	-327.56
	673	1690.62	3.52959E+000	3.52957E+000	-4.04200E-004	...........	-327.56
	674	1693.13	3.52959E+000	3.52959E+000	-4.00687E-004	...........	-327.56
	675	1695.63	3.52958E+000	3.52960E+000	-4.02013E-004	...........	-327.56
	676	1698.14	3.52958E+000	3.52960E+000	-4.03660E-004	...........	-327.56
	677	1700.65	3.52959E+000	3.52961E+000	-4.01880E-004	...........	-327.56
	678	1703.16	3.52959E+000	3.52959E+000	-4.00327E-004	...........	-327.56
	679	1705.67	3.52960E+000	3.52959E+000	-4.01907E-004	...........	-327.56
	680	1708.18	3.52960E+000	3.52961E+000	-4.00987E-004	...........	-327.56
	681	1710.68	3.52960E+000	3.52961E+000	-4.00200E-004	...........	-327.56
	682	1713.19	3.52960E+000	3.52960E+000	-4.01980E-004	...........	-327.56
	683	1715.7	3.52960E+000	3.52959E+000	-4.00520E-004	...........	-327.56
	684	1718.21	3.52960E+000	3.52959E+000	-3.98447E-004	...........	-327.56
	685	1720.72	3.52960E+000	3.52959E+000	-3.99280E-004	...........	-327.56
	686	1723.23	3.52960E+000	3.52959E+000	-3.93880E-004	...........	-327.56
	687	1725.73	3.52959E+000	3.52961E+000	-4.00993E-004	...........	-327.56
	688	1728.24	3.52959E+000	3.52959E+000	-3.96520E-004	...........	-327.56
	689	1730.75	3.52959E+000	3.52959E+000	-3.98287E-004	...........	-327.56
	690	1733.26	3.52960E+000	3.52964E+000	-3.96860E-004	...........	-327.56
	691	1735.77	3.52960E+000	3.52963E+000	-3.94207E-004	...........	-327.56
	692	1738.28	3.52961E+000	3.52963E+000	-3.97493E-004	...........	-327.56
	693	1740.78	3.52962E+000	3.52962E+000	-3.95613E-004	...........	-327.56
	694	1743.29	3.52962E+000	3.52959E+000	-3.95167E-004	...........	-327.56
	695	1745.8	3.52962E+000	3.52961E+000	-3.97840E-004	...........	-327.56
	696	1748.31	3.52962E+000	3.52959E+000	-3.94580E-004	...........	-327.56
	697	1750.82	3.52961E+000	3.52961E+000	-3.96827E-004	...........	-327.56
	698	1753.33	3.52960E+000	3.52960E+000	-3.92480E-004	...........	-327.56
	699	1755.83	3.52960E+000	3.52959E+000	-3.99347E-004	...........	-327.56
	700	1758.34	3.52960E+000	3.52962E+000	-3.93867E-004	...........	-327.56
	701	1760.85	3.52960E+000	3.52959E+000	-3.92513E-004	...........	-327.56
	702	1763.36	3.52960E+000	3.52960E+000	-3.94893E-004	...........	-327.56
	703	1765.87	3.52960E+000	3.52960E+000	-3.95287E-004	...........	-327.56
	704	1768.38	3.52960E+000	3.52961E+000	-3.96487E-004	...........	-327.56
	705	1770.88	3.52960E+000	3.52962E+000	-4.01807E-004	...........	-327.56
	706	1773.39	3.52960E+000	3.52960E+000	-3.97320E-004	...........	-327.56
	707	1775.9	3.52961E+000	3.52959E+000	-3.99327E-004	...........	-327.56
	708	1778.41	3.52961E+000	3.52959E+000	-3.99720E-004	...........	-327.56
	709	1780.92	3.52960E+000	3.52960E+000	-3.98027E-004	...........	-327.56
	710	1783.43	3.52960E+000	3.52959E+000	-3.99247E-004	...........	-327.56
	711	1785.93	3.52960E+000	3.52959E+000	-3.98660E-004	...........	-327.56
	712	1788.44	3.52959E+000	3.52959E+000	-3.97453E-004	...........	-327.56
	713	1790.95	3.52959E+000	3.52959E+000	-4.00487E-004	...........	-327.56
	714	1793.46	3.52959E+000	3.52958E+000	-3.97347E-004	...........	-327.56
	715	1795.97	3.52959E+000	3.52960E+000	-3.99987E-004	...........	-327.56
	716	1798.48	3.52959E+000	3.52959E+000	-3.97213E-004	...........	-327.56
	717	1800.98	3.52959E+000	3.52957E+000	-3.98420E-004	...........	-327.56
EOC	QUANT	3.529588	Open Circuit (V)
PSTATMODEL	IQUANT	5	Pstat Model
PSTATSECTION	LABEL	REF3000-51199	Pstat Section
PSTATSERIALNO	LABEL	51199	Pstat Serial Number
CTRLMODE	IQUANT	1	Control Mode
ELECTROMETER	IQUANT	0	RE=0 or CS=1
IESTAB	IQUANT	0	I/E Stability
CASPEED	IQUANT	3	Control Amp Speed
CONVENTION	IQUANT	1	Current Convention
ICHRANGE	IQUANT	2	Ich Range
ICHRANGEMODE	TOGGLE	F	Ich Auto Range
ICHOFFSETENABLE	TOGGLE	T	Ich Offset Enable
ICHOFFSET	QUANT	0	Ich Offset (V)
ICHFILTER	IQUANT	3	Ich Filter
VCHRANGE	IQUANT	2	Vch Range
VCHRANGEMODE	TOGGLE	F	Vch Auto Range
VCHOFFSETENABLE	TOGGLE	T	Vch Offset Enable
VCHOFFSET	QUANT	0	Vch Offset (V)
VCHFILTER	IQUANT	3	Vch Filter
ACHRANGE	IQUANT	2	Ach Range
ACHOFFSETENABLE	TOGGLE	F	Ach Offset Enable
ACHOFFSET	QUANT	0	Ach Offset (V)
ACHFILTER	IQUANT	1	Ach Filter
IERANGELOWERLIMIT	IQUANT	2	I/E Range Lower Limit
IERANGEMODE	TOGGLE	F	I/E AutoRange
IERANGE	IQUANT	12	I/E Range
POSFEEDENABLE	TOGGLE	F	Positive Feedback IR Comp
POSFEEDRESISTANCE	QUANT	0	Positive Feedback Resistance (ohm)
ACHSELECT	IQUANT	4	Ach Select
SENSECABLEID	IQUANT	14	Sense Cable ID
PWRCABLEID	IQUANT	7	Power Cable ID
DCCALDATE	LABEL	1/28/2026	DC Calibration Date
ACCALDATE	LABEL	1/28/2026	AC Calibration Date
THERMOSELECT	IQUANT	1	Thermo Select
FRAMEWORKVERSION	LABEL	7.11.0	Framework Version
INSTRUMENTVERSION	LABEL	5.20	Instrument Version
COMMVERSION	LABEL	5.10	Communications Version
CPUPLDVERSION	LABEL	6.00	CPU PLD Version
CTRLPLDVERSION	LABEL	3.21	CTRL PLD Version
PSTATPLDVERSION	LABEL	0.00	PSTAT PLD Version
COMPLIANCEVOLTAGE	IQUANT	0	Compliance Voltage
ZCURVE	TABLE
	Pt	Time	Freq	Zreal	Zimag	Zsig	Zmod	Zphz	ZrealDrCor	ZimagDrCor	ZmodDrCor	ZphzDrCor	Idc	Vdc	IERange	Imod	Vmod	Temp	Ithd	Vthd	IHr1	IHi1	VHr1	VHi1	IHr2	IHi2	VHr2	VHi2	IHr3	IHi3	VHr3	VHi3	IHr4	IHi4	VHr4	VHi4	IHr5	IHi5	VHr5	VHi5	IHr6	IHi6	VHr6	VHi6	IHr7	IHi7	VHr7	VHi7	IHr8	IHi8	VHr8	VHi8	IHr9	IHi9	VHr9	VHi9	IHr10	IHi10	VHr10	VHi10
	#	s	Hz	ohm	ohm	V	ohm	deg	ohm	ohm	ohm	deg	A	V	#	A	V	degC	#	#	A	A	V	V	A	A	V	V	A	A	V	V	A	A	V	V	A	A	V	V	A	A	V	V	A	A	V	V	A	A	V	V	A	A	V	V	A	A	V	V
	0	2	10078.13	0.0402264	0.0422012	1	0.0583018	46.37244	0.0402264	0.0422012	0.0583018	46.37244	-0.0712902	3.525756	12	0.1652894	0.0096351	-327.5556	0.1262883	0.2362972	5.583758	13.87919	-0.3572196	0.7955549	1.20256	-0.9183511	0.1292751	0.0512919	-0.9126878	-0.4469484	0.0017738	-0.1277969	-0.0315329	-0.4760849	0.0681496	-0.0336757	-0.1067531	0.0367406	-0.0142961	-0.0166035	-0.0292725	-0.0180186	0.0015237	-0.0073516	-0.014351	0.0420988	-0.0112612	-0.0001879	0.037105	-0.0066803	0.0054324	0.0095031	0.0260184	0.0363161	-0.0084398	0.0111828	0.0089448	-0.0126146	0.0051066	0.0015273
	1	4	8015.625	0.038849	0.0340466	1	0.0516567	41.2308	0.038849	0.0340466	0.0516567	41.2308	-0.0685164	3.525775	12	0.225618	0.0116535	-327.5556	0.1062517	0.2099812	19.22876	6.874285	0.5167015	0.9195254	-0.8352566	-0.983059	0.0257376	-0.0975442	0.7086908	1.404726	-0.0950191	0.1350863	0.1586263	0.6276407	-0.0664292	0.0538697	0.0269606	-0.3225347	0.0488208	-0.0159171	0.0555362	-0.1919898	0.0368974	-0.0035987	-0.0338511	0.0303875	-0.0086451	-0.0041058	0.00301	0.0050235	-0.0006917	0.0010488	0.0184888	-0.0027694	0.0023026	0.0044145	-0.0436344	-0.0003187	-0.003952	-0.0117896
	2	6	6328.125	0.0377676	0.0270652	1	0.0464641	35.62634	0.0377676	0.0270652	0.0464641	35.62634	-0.0670282	3.52575	12	0.2395222	0.0111285	-327.5556	0.1016633	0.19138	20.14299	-8.015116	0.978403	0.2392736	-1.049511	0.5918598	-0.0752278	-0.0292895	0.8778626	-1.409405	0.1460261	0.0004869	0.0263484	-0.6592008	0.0651542	-0.0309567	0.1372411	0.3624489	-0.0351406	0.0364196	0.187877	0.1462305	-0.0092678	0.0349689	-0.0559482	-0.0220929	0.0003135	-0.010524	-0.0231808	0.0164985	-0.004127	-0.0028584	0.0152704	-0.0012904	0.0017078	0.0027739	-0.0297498	0.0309777	-0.0090055	-0.0040256
	3	8	5015.625	0.0370124	0.021393	1	0.0427501	30.0277	0.0370124	0.021393	0.0427501	30.0277	-0.0652265	3.525767	12	0.2624523	0.0112194	-327.5556	0.0954521	0.1704607	-23.60611	2.650789	-0.9314334	-0.4044813	-1.087646	-0.0986275	-0.0399858	-0.0496257	-1.757333	0.2867542	-0.094028	-0.0942628	0.6080592	-0.2717553	0.0501782	0.0348508	0.4067112	-0.2657913	0.0462618	0.0255709	-0.1890192	0.2176354	-0.0347173	-0.0096548	-0.0599321	0.0776831	-0.0136452	-0.0035067	0.0123705	-0.0660786	0.0103583	-0.0023859	0.0083776	-0.0121262	0.0023346	0.0005617	0.015357	-0.0259895	0.0055859	0.0009725
	4	9	3984.375	0.0365225	0.016729	1	0.0401716	24.60995	0.0365225	0.016729	0.0401716	24.60995	-0.0645751	3.525726	12	0.2769055	0.0111235	-327.5556	0.0910208	0.1510736	17.56905	-17.87355	0.9399136	-0.3607887	-0.3749049	0.9458508	-0.0465636	0.0243771	-0.99639	-1.519141	0.033572	-0.1120867	-0.666382	-0.0227789	-0.0282272	-0.0436475	0.3699185	-0.397609	0.0485552	0.0099468	-0.0680279	-0.3126298	0.0253441	-0.0218294	0.1065755	0.0687145	-0.0017602	0.0146987	0.0832972	-0.0499439	0.0106164	0.0072165	-0.0117217	0.0136377	-0.0026941	-0.0005546	0.0113715	-0.0185967	0.0034494	0.0004048
	5	11	3170.956	0.0362577	0.0129002	1	0.0384842	19.58524	0.0362577	0.0129002	0.0384842	19.58524	-0.0624459	3.52577	12	0.2863077	0.0110181	-327.5556	0.0868668	0.1330456	-10.52465	23.6801	-0.6858901	0.7239203	0.2305987	0.8947503	-0.0154052	0.0401317	1.815745	-0.0385747	0.0738459	0.071032	-0.1380608	0.6353008	-0.0389029	0.0197768	0.4965912	0.3084706	0.0026095	0.0452573	-0.2378247	0.235004	-0.0288447	-0.0069675	0.0553959	0.1418202	-0.0094769	0.0115337	-0.116454	0.0301531	-0.0089383	-0.0098174	-0.0102663	0.022355	-0.0029573	0.0001998	-0.015902	0.0160255	-0.0028303	-0.001081
	6	13	2527.573	0.0361723	0.0097461	1	0.0374623	15.07937	0.0361723	0.0097461	0.0374623	15.07937	-0.061813	3.525745	12	0.2898409	0.010858	-327.5556	0.0831782	0.1170056	26.01435	-3.383082	0.97413	0.1298985	-0.8124128	-0.2684725	-0.0244768	-0.0274253	1.757908	-0.0378558	0.0689915	0.0553207	0.6040031	-0.2222564	0.0337442	0.0163336	-0.4976201	0.3253787	-0.0379558	-0.0120258	-0.2172229	0.2740948	-0.0262835	-0.0012773	0.0809606	-0.1425221	0.0136828	-0.0008848	0.0106448	-0.1368111	0.0113225	-0.0056056	-0.00398	0.0280384	-0.0026937	0.0010197	0.030268	0.0111498	0.0003421	0.0033879
	7	15	1976.103	0.0362474	0.0069256	1	0.0369031	10.8168	0.0362474	0.0069256	0.0369031	10.8168	-0.0599394	3.525788	12	0.2915606	0.0107594	-327.5556	0.0787028	0.1013076	-20.39171	-16.74993	-0.6238985	-0.7477287	0.3619529	-0.6740113	0.0242275	-0.0185993	1.357253	-0.976535	0.0755939	-0.0021113	-0.610969	0.0964383	-0.0271636	-0.0165772	-0.5520854	-0.242278	-0.0122757	-0.0325833	0.2234738	0.2782698	-0.0044281	0.0226133	0.0061372	0.1777133	-0.0096974	0.0080063	0.0527572	-0.1463826	0.0115011	-0.0031879	0.0313331	-0.0149703	0.0025139	0.0016064	-0.0343712	0.0274138	-0.0037153	-0.0014215
	8	17	1577.524	0.0364399	0.0047966	1	0.0367542	7.498839	0.0364399	0.0047966	0.0367542	7.498839	-0.0598555	3.525741	12	0.2870703	0.010551	-327.5556	0.074627	0.0891024	-21.90474	13.97425	-0.8649042	0.4048495	-0.669324	0.2250505	-0.0270875	-0.0002339	-0.6219812	1.409211	-0.0513171	0.0391476	-0.2302842	-0.5573284	0.0062752	-0.0274245	-0.5106534	-0.2625284	-0.0111198	-0.027338	0.3481771	-0.1108431	0.0182619	0.0094152	0.101173	-0.1407089	0.0104764	-0.0010946	0.0429443	0.160419	-0.0065274	0.0089669	0.0211512	0.0264882	-0.0005283	0.002328	-0.0442612	0.0281798	-0.0037108	-0.0015635
	9	19	1265.625	0.0367173	0.0030588	1	0.0368445	4.762102	0.0367173	0.0030588	0.0368445	4.762102	-0.0601224	3.525679	12	0.2834698	0.0104443	-327.5556	0.0690815	0.0777404	-25.17912	4.9276	-0.9395122	0.104521	-0.5193699	-0.3194802	-0.0158308	-0.0165995	-1.381572	-0.0930972	-0.0487738	-0.0253561	0.5513194	-0.2202746	0.0251322	0.0036457	0.4087161	-0.358082	0.0251524	-0.0025122	-0.157354	0.3386	-0.017035	0.008255	-0.0260176	0.1656871	-0.007143	0.0055375	-0.0607323	-0.1681898	0.0046594	-0.0092721	-0.0121683	-0.0283712	0.0007889	-0.001879	0.0623996	0.010161	0.0021384	0.003509
	10	21	998.264	0.0371095	0.0014831	1	0.0371391	2.288591	0.0371095	0.0014831	0.0371391	2.288591	-0.0581165	3.525735	12	0.2782617	0.0103344	-327.5556	0.0627889	0.0670394	24.7369	4.731658	0.9110636	0.2118087	-0.0883012	-0.4822897	0.0002527	-0.0182321	0.2936957	1.190175	-0.0038395	0.0467439	0.1522654	0.5153373	-0.002986	0.0213099	-0.1474798	-0.4953738	0.0050428	-0.0212951	-0.1133137	-0.3458846	0.0044661	-0.0160344	0.0410618	0.1642478	-0.0034352	0.0074279	0.0632089	0.172971	-0.003598	0.0089108	-0.0029564	-0.0354605	0.0012019	-0.0015616	-0.0409488	-0.0602682	0.0009128	-0.004101
	11	22	796.875	0.0375519	0.0002319	1	0.0375526	0.353814	0.0375519	0.0002319	0.0375526	0.353814	-0.0572012	3.525745	12	0.272305	0.0102258	-327.5556	0.0564985	0.057681	4.14815	24.29464	0.1505106	0.9132092	0.303269	0.2788837	0.0097469	0.0116456	0.3774704	-0.985492	0.0226839	-0.0318892	0.4833207	-0.0173563	0.0179195	0.0054888	-0.1804645	-0.44022	0.0007396	-0.0190661	0.2485064	-0.2489095	0.0143021	-0.0040288	-0.1479285	-0.0770292	-0.0035536	-0.0064435	0.0068152	-0.1904322	0.0052853	-0.0071046	-0.0348158	0.0051587	-0.0014515	-0.0008674	-0.0611476	-0.0498622	-0.0005522	-0.0040138
	12	24	627.7902	0.0380953	-0.0008974	1	0.0381058	-1.34944	0.0380953	-0.0008974	0.0381058	-1.34944	-0.0562232	3.525761	12	0.2669596	0.0101727	-327.5556	0.0494633	0.0489107	-23.06678	7.193523	-0.8721841	0.2950201	-0.28768	-0.1754941	-0.0100399	-0.0073755	-0.8775739	-0.0686835	-0.0313473	-0.0083108	0.3813233	-0.1808852	0.0155091	-0.0028711	0.2593208	-0.3388846	0.0136504	-0.0091752	-0.0400647	0.3270541	-0.0065653	0.0113873	0.0499648	0.1505861	-0.0008048	0.006449	-0.1495067	-0.1215714	-0.002938	-0.0077893	-0.0356104	-0.0129846	-0.0009437	-0.0012833	0.0778075	-0.0374366	0.003841	0.0004463
	13	25	505.5147	0.0386715	-0.0017668	1	0.0387118	-2.615848	0.0386715	-0.0017668	0.0387118	-2.615848	-0.055661	3.525753	12	0.2612735	0.0101144	-327.5556	0.043257	0.0417123	12.3631	20.15865	0.5139115	0.7575878	0.2778826	0.0339042	0.0102555	0.0016351	-0.3952341	-0.6183193	-0.0115727	-0.0244017	0.0924779	-0.3533366	0.0059804	-0.0122674	-0.3347829	0.1652871	-0.0136409	0.0027242	-0.2844108	-0.101028	-0.0091596	-0.0071167	0.0519973	0.1366684	-0.0001807	0.0057156	-0.0758187	0.1710829	-0.0056673	0.0049787	0.0319128	-0.0057289	0.001267	0.0002418	0.0828562	0.0358246	0.0022864	0.0031812
	14	27	397.9953	0.0393698	-0.002574	1	0.0394538	-3.740728	0.0393698	-0.002574	0.0394538	-3.740728	-0.0554332	3.525732	12	0.2557049	0.0100885	-327.5556	0.0366785	0.0346226	22.2513	6.365032	0.892452	0.1931319	0.0608926	-0.2185671	0.0023141	-0.0082059	-0.2566439	0.5338442	-0.0109099	0.0189865	-0.1599593	0.2614666	-0.0072603	0.008714	0.1953149	-0.2434645	0.008894	-0.0076292	0.1836952	-0.1938399	0.0084195	-0.0052081	-0.0981732	0.078513	-0.004493	0.0016607	-0.1436715	0.1019391	-0.0064185	0.0020992	0.0262249	-0.010219	0.0011673	0.0001562	0.0778354	-0.0433587	0.0036345	-0.0003896
	15	29	315.5048	0.0401259	-0.0032148	1	0.0402545	-4.580589	0.0401259	-0.0032148	0.0402545	-4.580589	-0.0543271	3.525759	12	0.2496818	0.0100508	-327.5556	0.0308032	0.0285098	12.95808	-18.51447	0.4603074	-0.7846412	-0.1512028	0.0990932	-0.0057359	0.0038071	-0.0195364	-0.4732085	-1.91927E-005	-0.0176976	-0.2304095	-0.0992659	-0.0082424	-0.0042496	0.2049027	-0.1631868	0.0081923	-0.0049322	-0.0547625	-0.2217819	-0.0005518	-0.008394	0.1059359	0.0239934	0.003756	0.0018675	0.0953622	-0.1232742	0.0047474	-0.0035248	0.0077446	0.0232949	-4.434587E-005	0.0009365	0.0839264	-0.0099757	0.0031588	0.0006515
	16	30	252.4038	0.040904	-0.0037191	1	0.0410727	-5.195212	0.040904	-0.0037191	0.0410727	-5.195212	-0.0540771	3.525745	12	0.2441626	0.0100284	-327.5556	0.0257981	0.0235941	-13.6168	-17.40551	-0.6218005	-0.6612322	0.1453635	0.0051854	0.0056868	-0.0000978	0.2284819	0.3011447	0.0085981	0.0113058	0.0231164	-0.2055402	0.0012096	-0.0076706	0.1720763	-0.1291782	0.0069984	-0.0041959	-0.1957934	-0.0168839	-0.0070392	-0.0014548	-0.0603213	-0.0680294	-0.0016739	-0.0027692	-0.0072523	0.1370589	-0.0012577	0.0050732	-0.0157183	0.0130842	-0.0007107	0.0003224	0.0756491	-0.0060832	0.0027466	0.0001959
	17	32	198.6229	0.0417893	-0.0041436	1	0.0419943	-5.662642	0.0417893	-0.0041436	0.0419943	-5.662642	-0.0538156	3.525726	12	0.2385354	0.0100171	-327.5556	0.0208832	0.0188381	-21.53278	-1.56749	-0.9063333	0.0238116	-0.0023683	-0.1162872	-0.0004036	-0.0045967	0.0185588	-0.2912684	0.0004256	-0.0111842	-0.0005781	0.1674955	-1.776219E-005	0.0063424	-0.0011581	0.1712255	-0.0005127	0.0063269	-0.0111715	-0.1573475	1.215935E-005	-0.0058079	-0.0081338	-0.0714322	-6.413461E-005	-0.0025806	0.0195485	0.1115026	0.000419	0.0041392	0.0013201	0.0119446	-8.130075E-005	0.0006189	-0.019933	-0.0615146	-0.0002463	-0.0025446
	18	34	158.3615	0.0426666	-0.0044413	1	0.0428971	-5.942726	0.0426666	-0.0044413	0.0428971	-5.942726	-0.052767	3.525754	12	0.2332869	0.0100073	-327.5556	0.0169695	0.015159	-7.022873	19.91258	-0.2111321	0.8808093	-0.044512	0.0807647	-0.0016751	0.0031967	0.1397499	0.182531	0.0057762	0.0070512	-0.1209963	0.0554251	-0.0044956	0.0020771	0.0193368	0.1345432	0.0008198	0.0050888	-0.1259647	-0.0082333	-0.0045146	-0.0003822	-0.0194025	0.0536389	-0.0008909	0.001884	-0.0793173	-0.0471092	-0.0029228	-0.0020123	-0.0065432	0.0093242	-0.0002606	0.0001848	-0.0348074	-0.042473	-0.0010059	-0.0016568
	19	35	125.558	0.0435757	-0.0046181	1	0.0438198	-6.049501	0.0435757	-0.0046181	0.0438198	-6.049501	-0.0520165	3.52576	12	0.2281998	0.0099997	-327.5556	0.0136015	0.0120354	11.10396	17.41555	0.5643351	0.7075804	0.0698465	0.0210012	0.0029836	0.0006607	-0.0344153	-0.1758828	-0.0016842	-0.0067449	0.0683108	-0.0763613	0.0022571	-0.0031695	-0.1081334	-0.0116061	-0.004221	-0.0003996	-0.0534561	-0.0845338	-0.0021315	-0.0032852	-0.0145038	0.0407029	-0.0005122	0.0015676	-0.0701181	0.019466	-0.0026693	0.0007634	0.0074728	0.0032148	0.0002055	0.0003855	0.0070974	0.0432956	0.0001501	0.0013757
	20	37	100.4464	0.0444597	-0.0047092	1	0.0447084	-6.046309	0.0444597	-0.0047092	0.0447084	-6.046309	-0.0519649	3.525744	12	0.2236069	0.0099971	-327.5556	0.010953	0.0097266	19.6912	4.675187	0.8974879	0.1150807	0.0169422	-0.0562994	0.0004144	-0.0021703	-0.0877848	0.1079105	-0.0033588	0.0045214	-0.0615128	0.0553012	-0.0025229	0.0023965	0.0729759	-0.0439383	0.0026329	-0.0016892	0.0726994	-0.0314769	0.002871	-0.0012395	-0.0313878	0.0088012	-0.0012962	0.0003877	-0.0603964	0.0048327	-0.0022846	0.0001109	0.0051912	-7.551909E-005	0.0001374	0.0002193	0.0336733	0.0079357	0.0014088	0.0002539
	21	39	79.00281	0.0454046	-0.0046739	1	0.0456445	-5.877207	0.0454046	-0.0046739	0.0456445	-5.877207	-0.052112	3.525712	12	0.2189371	0.0099933	-327.5556	0.0085538	0.0075735	-12.78634	15.13871	-0.5097717	0.7471485	-0.0407272	0.0168876	-0.0016663	0.0008165	-0.0559013	0.0905229	-0.0021138	0.0039375	-0.0246982	-0.0599935	-0.0012269	-0.0021913	-0.0623969	-0.0169403	-0.0024152	-0.0005918	0.0496437	-0.0361102	0.0019388	-0.0015035	-0.000135	-0.02385	-8.594991E-005	-0.0008337	0.0364573	0.0268842	0.0014246	0.0010464	0.0025257	0.000406	0.0001165	-0.0001605	-0.0077195	0.0249542	-0.0002694	0.0010297
	22	41	63.3446	0.0462423	-0.004562	1	0.0464668	-5.634212	0.0462423	-0.004562	0.0464668	-5.634212	-0.0518248	3.525691	12	0.2148299	0.0099825	-327.5556	0.0068724	0.006023	-2.120147	-19.32825	-0.1862443	-0.8841049	0.0162538	0.0330809	0.0007312	0.0013845	-0.0800284	0.0240512	-0.0031743	0.0012228	0.0231475	0.0480788	0.0011709	0.00186	-0.039821	0.0304983	-0.001667	0.0010779	0.0304936	0.03681	0.0013046	0.001446	-0.0105791	0.0150431	-0.0003241	0.000602	0.0291474	0.0179258	0.0011823	0.0006137	-0.0011971	-0.000849	-2.783537E-005	0.0001295	0.0183753	0.0042358	0.0008599	0.0001643
	23	43	49.86702	0.0470804	-0.0043609	1	0.047282	-5.291956	0.0470804	-0.0043609	0.047282	-5.291956	-0.0503056	3.525751	12	0.2108758	0.0099712	-327.5556	0.0052902	0.0047309	-2.191711	18.96005	-0.0204494	0.9022546	0.0033246	0.0274982	9.036064E-005	0.0011969	0.0608084	0.0232509	0.0026922	0.0007908	-0.0173826	0.034432	-0.0005286	0.0015463	0.0313021	0.0161318	0.0014086	0.0005734	-0.0223012	0.0298731	-0.0007842	0.0012639	0.0109732	0.006952	0.0004936	0.0002813	-0.0198615	0.0170962	-0.0007279	0.000747	0.0017362	0.002502	6.330013E-005	8.273125E-005	-0.010666	0.0096686	-0.0004371	0.0003273
	24	44	39.72458	0.0478508	-0.0040963	1	0.0480258	-4.892907	0.0478508	-0.0040963	0.0480258	-4.892907	-0.0489673	3.525784	12	0.2068742	0.0099356	-327.5556	0.0042373	0.0037659	18.4953	2.918325	0.8970027	0.0638417	-0.0021975	-0.0256164	-9.417535E-005	-0.001118	-0.025976	0.042382	-0.0009115	0.0019571	-0.0171333	0.0237195	-0.0006356	0.0011093	0.018225	-0.0225196	0.0006819	-0.0010136	0.0233941	-0.0150579	0.0009108	-0.000705	-0.0102384	0.0041326	-0.000396	0.0001754	-0.0193646	0.0080611	-0.0007472	0.0004086	0.0010802	-0.0005445	3.457069E-005	-3.671647E-005	0.0111045	-0.0025573	0.0003827	-0.000183
	25	46	31.6723	0.0485131	-0.0037732	1	0.0486596	-4.44731	0.0485131	-0.0037732	0.0486596	-4.44731	-0.0490031	3.525767	12	0.2024265	0.0098502	-327.5556	0.0032467	0.0030017	14.1522	-11.63593	0.6426528	-0.6179306	-0.0188971	0.0027988	-0.0008779	3.579259E-005	0.0341961	-0.0152592	0.0014746	-0.0008881	0.0097486	-0.0218218	0.0003457	-0.0010253	0.0070018	0.0172613	0.0003917	0.0006915	0.0187401	0.013763	0.0008686	0.0005271	-0.0066078	0.0007014	-0.0002816	0.0000954	-0.0104824	0.0111151	-0.0003586	0.0005577	-0.0004158	0.0004195	-2.908707E-005	1.752377E-005	-0.0040866	-0.0042271	-0.0001924	-0.0001603
	26	48	24.93351	0.0491112	-0.0034035	1	0.049229	-3.964352	0.0491112	-0.0034035	0.049229	-3.964352	-0.0487301	3.525753	12	0.1957915	0.0096387	-327.5556	0.0024364	0.0022207	3.329273	17.40547	0.2227712	0.8434765	0.0128624	0.0116951	0.0005264	0.0005828	0.0250665	-0.0128817	0.0010881	-0.0007145	0.0105805	0.012702	0.0005553	0.0004724	0.0065726	-0.0084609	0.0002775	-0.0003864	0.0141834	0.0076042	0.0006375	0.0002608	0.0016646	-0.0040128	8.72612E-005	-0.0001646	0.0093663	0.0002067	0.0003915	-2.861023E-005	-0.0003092	0.0001827	-1.120567E-005	-4.363061E-005	0.0035983	-0.0009577	0.0001028	-9.107591E-005
	27	49	19.86229	0.0495751	-0.0030342	1	0.0496678	-3.502407	0.0495751	-0.0030342	0.0496678	-3.502407	-0.0473831	3.525819	12	0.2172605	0.0107909	-327.5556	0.0020306	0.0018078	1.036375	-19.63684	-0.0082276	-0.976651	0.0087544	0.0102371	0.0003672	0.0003951	-0.0238836	-0.0063388	-0.0011063	-0.0002156	-0.003572	0.0127623	-0.0001068	0.0004941	-0.0139828	-0.0042498	-0.0006623	-0.0001842	-0.003611	0.012644	-0.000128	0.0006849	-0.006419	-0.00206	-0.0002854	-0.0001278	-0.0059093	0.0105926	-0.0002034	0.0003825	-0.0021856	0.0005773	-0.0001087	3.504753E-005	-0.0015475	0.0063333	-3.266336E-005	0.0002077
	28	51	15.83615	0.0500044	-0.0026821	1	0.0500763	-3.070199	0.0500044	-0.0026821	0.0500763	-3.070199	-0.0470957	3.525817	12	0.1996401	0.0099973	-327.5556	0.0018861	0.0015366	0.9376623	-18.04501	-0.0015271	-0.90485	0.0074658	0.01454	0.0002286	0.0005211	-0.0181816	-0.0018177	-0.0007668	4.768372E-006	-0.0042589	0.0141146	-5.865098E-005	0.0005708	-0.0084934	-0.0012658	-0.0003352	-0.0001391	-0.0044438	0.0131903	-0.0001206	0.0006158	-0.0037653	-0.0016814	-0.0002184	-0.0001297	-0.0014902	0.0062752	-0.0001028	0.000232	-0.0003656	-0.0006064	8.153915E-005	-0.0001355	-0.0023325	0.0033376	-0.0001054	4.076958E-005
	29	53	12.40079	0.0503379	-0.0023207	1	0.0503914	-2.639584	0.0503379	-0.0023207	0.0503914	-2.639584	-0.0466204	3.525827	12	0.1983329	0.0099943	-327.5556	0.0015919	0.0014358	0.8939239	-17.92878	0.0033784	-0.9045751	0.00644	0.0146783	0.0001764	0.0006226	-0.0139027	0.0009348	-0.0006673	5.728006E-005	-0.0035551	0.0117048	-0.000097	0.0006124	-0.0080832	-0.0001699	-0.0004137	-3.719331E-005	-0.0023159	0.0088866	-7.081033E-005	0.0002965	-0.0039849	0.0007315	-0.0001802	-2.503395E-005	-0.0025315	0.0059176	-0.0000987	0.0003377	-0.0013172	-0.0005009	-6.413461E-005	-5.435945E-005	-0.0004651	0.0024656	-7.200242E-005	2.062321E-005
	30	54	9.93114	0.0505856	-0.0020195	1	0.0506259	-2.286206	0.0505856	-0.0020195	0.0506259	-2.286206	-0.0467003	3.525803	12	0.197765	0.010012	-327.5556	0.0010239	0.0009264	0.8516274	-17.87938	0.0069618	-0.9061603	0.0077621	0.0047434	0.000267	0.0002212	-0.0107094	-0.0038854	-0.0005302	-0.0002812	-0.0019073	0.0054094	-5.459786E-005	0.0002307	-0.0054887	-0.0023401	-0.0002689	-8.058549E-005	-0.0036014	0.0047005	-0.0001035	0.0002128	-0.001938	-0.0003241	-6.890298E-005	-6.02007E-005	-0.0018295	0.0030291	-6.842614E-005	0.0001298	-0.0008804	0.0001095	-3.290177E-005	5.960464E-007	-0.0011708	0.0011072	-3.314019E-005	3.349781E-005
	31	56	7.944915	0.0507788	-0.0017609	1	0.0508093	-1.986066	0.0507788	-0.0017609	0.0508093	-1.986066	-0.0462548	3.52581	12	0.1966428	0.0099913	-327.5556	0.0009963	0.0008449	0.8127759	-17.77951	0.0099561	-0.9042545	0.0070981	0.0081888	0.0002444	0.0003392	-0.0093157	-0.0003839	-0.0004442	-4.148484E-005	-0.0009955	0.0059428	8.106232E-006	0.0002858	-0.0048424	-0.0004568	-0.0002048	-6.264449E-005	-0.0009256	0.0053314	7.867813E-006	0.0002351	-0.001517	-0.0008795	-3.337861E-005	-6.592275E-005	-0.0018287	0.0029698	-5.102159E-005	0.0001253	-0.0002424	0.0003515	-1.645088E-005	2.062321E-005	-0.0011595	0.0020075	-4.22001E-005	2.884865E-005
	32	58	6.317385	0.0509421	-0.0015317	1	0.0509652	-1.722242	0.0509392	-0.0015314	0.0509622	-1.721945	-0.0456326	3.525824	12	0.1963047	0.0100047	-327.5556	0.0005975	0.0005195	0.7710329	-17.75074	0.0120823	-0.9054423	0.0046273	0.0008084	8.201599E-005	1.388788E-005	-0.006362	-0.0020607	-0.0003045	-0.0001475	-0.0008398	0.0031835	-4.792214E-005	0.0001319	-0.0037499	-0.0019687	-0.0001681	-0.0001474	-0.0012701	0.002946	-1.740456E-005	0.0001034	-0.0012532	-0.0001363	-9.012223E-005	-4.649163E-005	-0.0005638	0.001844	-1.716614E-005	7.581711E-005	-0.0004861	0.0009373	-3.337861E-005	3.874302E-005	-0.0004075	0.0005096	-1.144409E-005	1.394749E-005
	33	60	5.008013	0.0510687	-0.0013464	1	0.0510865	-1.510208	0.051066	-0.001344	0.0510837	-1.507641	-0.0451387	3.525829	12	0.1956768	0.0099964	-327.5556	0.0006827	0.0005215	0.7479551	-17.69484	0.0143678	-0.9046608	0.0079552	0.0037983	0.0002222	0.0001394	-0.005518	-0.0002746	-0.0002661	-9.393693E-005	-0.0010159	0.0036037	-3.83854E-005	0.0001565	-0.0023972	-0.000501	-0.0001113	-6.616117E-005	-0.0008805	0.0032348	-5.88894E-005	0.0001347	-0.0009938	0.0006671	-4.48227E-005	-2.563E-005	-0.0007828	0.0017652	-3.433229E-005	6.508827E-005	-0.0003815	0.0001457	-3.480912E-005	-5.960465E-007	-0.0004601	0.0010736	-6.675721E-006	2.217293E-005
	34	63	3.945707	0.0511783	-0.0011898	1	0.0511921	-1.331773	0.0511749	-0.0011916	0.0511888	-1.333921	-0.0449071	3.525816	12	0.1954163	0.0100038	-327.5556	0.0007602	0.0005903	0.7347233	-17.67179	0.016572	-0.9052865	0.0094004	0.0069243	0.0003469	0.0002709	-0.0042647	-0.0001622	-0.0002055	-5.173684E-005	-0.0007185	0.0030927	-2.098084E-005	8.273125E-005	-0.0020735	0.0001592	-9.322167E-005	-5.078317E-005	-0.0010808	0.0024598	-2.0504E-005	0.0001014	-0.0006435	-0.0005728	-1.883507E-005	-9.000302E-005	-0.0006337	0.001619	-3.170968E-005	6.997585E-005	-0.0002739	-0.0006192	-2.503395E-005	-3.504754E-005	-0.0003889	0.0005109	-3.910066E-005	2.503395E-006
	35	66	3.158693	0.0512667	-0.0010821	1	0.0512781	-1.209168	0.0512595	-0.0010798	0.0512708	-1.206793	-0.0442382	3.525824	12	0.1951045	0.0100046	-327.5556	0.0006158	0.0004554	0.7051848	-17.64476	0.017056	-0.9053523	0.008989	0.0017169	0.0003142	3.299117E-005	-0.0044303	-0.0002232	-0.0001988	-6.943942E-005	-0.0001413	0.0023324	9.775162E-006	7.891655E-005	-0.0016767	0.000411	-9.250642E-005	-1.233816E-005	-0.0004927	0.0017239	8.106232E-006	7.498264E-005	-0.0008517	0.0002357	-2.193451E-005	-8.106233E-006	-0.0005308	0.0010331	-1.764298E-005	4.601479E-005	-6.702543E-005	0.0001548	-9.536744E-007	2.026558E-006	-0.0007193	0.0007024	-4.458428E-005	-1.382828E-005
	36	70	2.504006	0.0513518	-0.0009987	1	0.0513616	-1.114156	0.0513457	-0.0009989	0.0513554	-1.114568	-0.0439829	3.525808	12	0.1944548	0.0099875	-327.5556	0.0004844	0.0003297	0.7031763	-17.58599	0.0185437	-0.9037756	0.0036486	0.0068462	6.532669E-005	0.0002496	-0.0013271	0.001433	-3.19481E-005	-1.28746E-005	0.0007377	0.0014297	3.814697E-005	3.504753E-005	-0.0013392	-0.000253	-7.724763E-005	-6.860496E-005	-2.04891E-007	0.0014407	9.059906E-006	4.172325E-005	-0.0005173	-3.961847E-006	-1.0252E-005	-3.945828E-005	-0.0004541	0.0010777	-1.907349E-006	4.708767E-005	0.0001346	0.0002098	-9.536744E-006	-1.013279E-005	-0.0002239	0.000648	-3.767015E-005	-2.062321E-005
	37	74	1.998082	0.0514304	-0.0009439	1	0.051439	-1.051433	0.0514195	-0.0009449	0.0514281	-1.052739	-0.04349	3.525803	12	0.1946204	0.0100111	-327.5556	0.0008585	0.0008662	0.6769474	-17.60202	0.018199	-0.9059173	0.0092292	-0.0032281	0.0003281	-0.000266	-0.0012185	-0.0104498	-4.86374E-005	-0.0005916	-0.00028	0.0031354	1.454353E-005	0.0001165	-0.0007551	-0.0025922	-2.861023E-005	-0.0001931	-0.0006742	0.0001453	6.198883E-006	5.364418E-006	-3.712253E-005	-0.0017174	2.0504E-005	-0.0001489	-0.0006573	0.0001237	-3.242494E-005	-3.004074E-005	0.0004158	-0.0010108	9.775162E-006	-8.821488E-005	-0.000184	-0.0003542	-2.098084E-005	-1.966953E-005
	38	78	1.584686	0.0515084	-0.0009129	1	0.0515165	-1.015391	0.051498	-0.0009128	0.0515061	-1.015445	-0.04238	3.525837	12	0.1940084	0.0099946	-327.5556	0.0006704	0.0006134	0.6739504	-17.5467	0.0186937	-0.9044183	0.0036295	-0.0029007	6.29425E-005	-0.0002478	-0.0025194	0.0099445	-9.465219E-005	0.0004234	-0.0016123	-0.0017999	-7.462503E-005	-0.0001742	0.0013184	-0.0007608	8.34465E-005	-8.273126E-005	-0.0008206	0.0007876	0	1.013279E-005	-0.0003126	0.0001917	6.198883E-006	-3.254415E-005	-0.0003498	0.0011705	-1.931191E-005	3.20673E-005	-5.935506E-005	0.0002814	-2.121925E-005	1.430512E-006	0.0001274	0.0007532	-1.811981E-005	-3.516675E-005
	39	83	1.266892	0.0515869	-0.000907	1	0.0515949	-1.007229	0.0515738	-0.0009052	0.0515817	-1.005482	-0.0419552	3.52582	12	0.1938778	0.0100031	-327.5556	0.0009771	0.000836	0.7083126	-17.53352	0.0206361	-0.9051425	0.0123574	0.0034514	0.0004988	3.230572E-005	-0.0083418	0.0047279	-0.0004346	0.0001817	0.0058409	-6.180164E-005	0.0002947	-6.282331E-005	2.864748E-005	0.0008624	3.695488E-005	-2.527237E-005	-0.0011193	0.0006552	-4.053117E-005	3.945827E-005	-0.0005411	0.0001407	-3.004074E-005	-3.468991E-005	-0.0005645	0.0003506	6.67572E-006	6.67572E-006	0.0001672	-0.00016	2.741814E-005	-3.063679E-005	0.0002629	7.022545E-005	7.390976E-006	-3.516675E-005
	40	90	0.999041	0.051682	-0.0009226	1	0.0516902	-1.022738	0.0516676	-0.000923	0.0516759	-1.023389	-0.0414896	3.525814	12	0.1934719	0.0100006	-327.5556	0.0019548	0.0018623	0.7206722	-17.49624	0.0211022	-0.9049054	0.0299787	-0.0030087	0.0013704	-0.0002531	0.007688	-0.0061193	0.0004055	-0.0004668	0.0066871	-0.0094396	0.0003142	-0.0005769	0.0018292	0.0037663	0.0001187	0.0001301	0.0020118	-0.0005306	0.0001225	-3.600122E-005	-0.0029882	0.0009163	-0.0001528	8.34465E-006	-0.0002544	0.0005041	1.215935E-005	-4.875661E-005	-0.0012376	-0.0003559	-6.27041E-005	-4.518033E-005	-0.0001341	-3.47905E-005	-5.340577E-005	-5.602838E-005
	41	96	0.7923428	0.0517572	-0.0009559	1	0.051766	-1.058111	0.0517427	-0.0009553	0.0517516	-1.057688	-0.0407309	3.525813	12	0.193098	0.0099959	-327.5556	0.0017672	0.0015634	0.7202771	-17.46239	0.0205858	-0.9044928	0.0242021	0.011533	0.0011196	0.0003503	0.0088298	-0.0049651	0.0004573	-0.0003836	-0.0005607	0.0082314	-7.390977E-006	0.0003572	0.0007126	0.004189	6.341934E-005	0.000131	-3.058463E-005	0.0052866	5.626678E-005	0.0002673	0.0017855	-0.0002854	0.0001075	-0.0000972	-0.0013556	0.0005449	-6.628037E-005	-7.390977E-006	-0.0007772	0.0032989	-2.765656E-005	0.0001329	-0.0005215	0.0011411	-4.768373E-006	2.717972E-005
	42	104	0.6334459	0.0518568	-0.001017	1	0.0518668	-1.123484	0.051841	-0.0010163	0.0518509	-1.123062	-0.0400695	3.525805	12	0.192798	0.0099998	-327.5556	0.0019279	0.0019297	0.7499777	-17.43396	0.0211611	-0.9048319	0.0231493	-0.0016764	0.0011268	-0.00034	-0.0070121	0.0060028	-0.0003457	0.0002216	-0.0077438	-0.0165623	-0.0004451	-0.0008981	0.00407	-2.224371E-005	0.0002203	-0.0001124	-0.0026166	-0.0098625	-0.0001175	-0.0005642	0.0002787	0.0034561	6.270409E-005	0.0001317	-0.0002563	0.0037825	2.861023E-006	0.0001807	-0.0009229	0.0011402	-4.625321E-005	2.634525E-005	-0.0016384	0.0046576	-9.155274E-005	0.000182
	43	113	0.5040323	0.0519521	-0.0010958	1	0.0519636	-1.208374	0.0519311	-0.0010959	0.0519427	-1.208977	-0.0390341	3.525808	12	0.1926905	0.0100129	-327.5556	0.0018636	0.0017053	0.7815425	-17.42283	0.0215096	-0.9060088	0.0211064	0.0060621	0.0009999	0.0001519	-0.0118339	0.0136513	-0.0006232	0.0005782	0.0017976	-0.0053511	8.72612E-005	-0.0003833	-0.0035538	0.0022878	-0.0002005	2.741814E-005	-0.0049588	0.0009824	-0.000242	3.33786E-006	-0.0004577	0.0049161	6.198883E-006	0.0001929	0.0017736	0.0069416	0.000107	0.0003309	-0.0064595	-0.00074	-0.0003111	-6.997586E-005	-0.0068575	0.0027304	-0.0003538	5.972385E-005
	44	124	0.400641	0.0520658	-0.0011957	1	0.0520796	-1.315544	0.0520452	-0.0011959	0.0520589	-1.316355	-0.0381206	3.525807	12	0.1917176	0.0099846	-327.5556	0.0016241	0.0014752	0.8158553	-17.33311	0.0217531	-0.9034382	0.0191664	0.002305	0.0008388	-0.0001065	0.0014989	0.0032563	7.43866E-005	0	0.0121211	0.0061185	0.0006759	0.0002232	-0.0087577	-0.0017511	-0.0004489	-0.0001758	-0.0021923	0.0088501	-7.55787E-005	0.0003893	0.0004781	-0.0046564	2.002716E-005	-0.0003028	-0.0016805	-0.0003276	-6.484986E-005	-4.696847E-005	0.0021116	0.0036526	0.0001142	0.0001197	0.0024747	0.0035586	0.0001504	0.0001099
	45	138	0.316723	0.0521948	-0.0013232	1	0.0522116	-1.452243	0.052173	-0.0013219	0.0521897	-1.451376	-0.0370797	3.525802	12	0.1917702	0.0100126	-327.5556	0.0013034	0.001509	0.8610471	-17.33569	0.0220027	-0.9059727	0.0013855	0.0008461	-8.440019E-005	-0.0002055	-0.0070422	-0.0138446	-0.000427	-0.000931	0.0026	-0.0047558	0.0001345	-0.0003805	0.0049941	0.0050829	0.0002675	0.0001575	-0.0035386	-0.0054168	-0.0001655	-0.0003458	-0.0072462	0.003614	-0.0003517	0.0001434	0.0028968	-0.0008023	0.0001736	-8.296968E-005	0.0042724	-2.207607E-005	0.0002229	-3.445149E-005	0.0070187	0.0019421	0.0003653	1.013279E-005
	46	155	0.2520161	0.0523436	-0.0014637	1	0.052364	-1.601777	0.0523159	-0.0014644	0.0523363	-1.603409	-0.0359831	3.525793	12	0.1908147	0.0099918	-327.5556	0.0016654	0.0015495	-0.2864918	-17.26821	-0.0418737	-0.9033841	0.0108147	0.0114847	0.0004952	0.000258	0.0001368	0.0004375	-1.811981E-005	-0.0001657	0.0043773	-0.004852	0.0002744	-0.0003413	0.008478	0.0090651	0.0004301	0.0003308	0.0088037	0.0082752	0.0005205	0.0003138	0.0018433	-0.0081656	7.462502E-005	-0.0005209	-0.0006982	-0.0037243	-1.072884E-005	-0.000235	-0.000836	0.0060218	-1.28746E-005	0.0002542	-0.0097294	-0.0044091	-0.000531	-0.0002991
	47	173	0.2003205	0.0525092	-0.0016372	1	0.0525347	-1.785873	0.0524819	-0.0016357	0.0525074	-1.785134	-0.0346036	3.525789	12	0.1903596	0.0100005	-327.5556	0.0016576	0.0014751	0.0090925	-17.22938	-0.0290048	-0.9046739	0.0178676	0.0087542	0.000798	0.0001428	-0.0089144	0.0014828	-0.0004575	-0.0001189	-0.0061352	-0.0039294	-0.0003016	-0.0003449	-0.0058763	0.0044743	-0.0002649	0.0001079	0.0056294	0.0034374	0.0003321	0.0001276	0.0028856	-0.0032136	0.0001671	-0.000242	-0.0097845	-0.0005481	-0.0004928	-8.118154E-005	0.0063388	-0.0013842	0.0003183	-0.0001075	-0.0013305	0.0053308	-4.363061E-005	0.0001814
	48	200	0.1588983	0.0526913	-0.0018368	1	0.0527233	-1.99651	0.052654	-0.0018368	0.052686	-1.997947	-0.0331353	3.525799	12	0.1897201	0.0100027	-327.5556	0.0019525	0.0020572	0.2672795	-17.16942	-0.0184643	-0.9051496	-0.0001278	-0.0118016	-4.744531E-005	-0.0009899	-0.0033049	0.0041389	-0.0001612	-5.650521E-005	-0.0130497	0.0006382	-0.0006561	-0.0001124	-0.0143458	-0.0010624	-0.0006983	-0.0002006	-0.0019203	-0.0013973	-5.793572E-005	-0.0001307	-0.0186804	-0.0063806	-0.0009556	-0.0003874	0.0066658	0.003109	0.0003302	4.720688E-005	-0.0054232	0.000567	-0.0002565	-2.0504E-005	-0.0088703	0.0046171	-0.0004401	0.0001773
	49	226	0.1260081	0.0529092	-0.0020699	1	0.0529497	-2.240332	0.0528496	-0.0020683	0.0528901	-2.241207	-0.032812	3.525787	12	0.1888747	0.0100008	-327.5556	0.0023415	0.0016862	0.4899941	-17.08796	-0.0102458	-0.9051149	0.0091982	0.0227872	0.0004385	0.0005846	-0.0046147	0.0140182	-0.0001857	0.0003803	-0.0097719	0.0154734	-0.0004449	0.0005512	-0.0010052	0.0034432	-6.675721E-006	-8.445979E-005	0.0011741	-0.0042017	7.486343E-005	-0.0003506	0.0136984	0.0050122	0.0007286	5.829334E-005	-0.0087995	0.0070224	-0.0004339	0.0002475	-0.0015889	-0.0043413	-4.243852E-005	-0.0003266	0.0041491	0.0059709	0.0002356	0.0001771
	50	257	0.1001603	0.0531708	-0.0023457	1	0.0532225	-2.526094	0.0530699	-0.0023414	0.0531216	-2.526177	-0.0329553	3.52579	12	0.1878985	0.0100004	-327.5556	0.0020008	0.0012342	0.6898093	-16.99263	-0.0038195	-0.9051265	0.015631	0.0165	0.0007799	-0.0001189	-0.0037502	0.0136903	-0.0001106	8.916855E-005	-0.0030561	0.0063317	-0.0001063	-5.620719E-005	-0.0085909	0.0080345	-0.0004044	8.219481E-005	-0.0079838	0.0069408	-0.0003839	0.0001097	-0.0034106	-0.000591	-0.0001392	-0.0002688	0.0017165	0.005423	0.0001483	6.651878E-005	-0.0024591	0.0093685	-7.343293E-005	0.0003233	0.0011354	0.0007487	8.273125E-005	-0.0001631
	51	305	0.0794492	0.0534835	-0.0026621	1	0.0535497	-2.849544	0.0533103	-0.0026501	0.0533761	-2.845905	-0.0336682	3.525796	12	0.186768	0.0100014	-327.5556	0.0025522	0.000818	0.878826	-16.88145	0.0015569	-0.9052184	0.0011012	0.0277619	0.0001144	-7.990004E-005	-0.0029726	0.0167918	-2.384186E-005	-0.0001119	-0.0027344	0.0095109	-4.744531E-005	-0.0002331	-0.0008031	0.0133925	6.67572E-005	0.000116	-0.0016786	0.0128996	3.027916E-005	0.0001802	0.0033272	0.0082973	0.0002594	-1.597405E-005	0.0026139	0.0079656	0.0002298	2.741814E-005	-0.0089415	0.0017513	-0.0004067	-0.0002534	-0.0002112	0.0108738	4.506111E-005	0.0002346
	52	344	0.0631739	0.0536738	-0.0030389	1	0.0537598	-3.24055	0.0535788	-0.0030296	0.0536644	-3.236371	-0.0289609	3.525795	12	0.1860334	0.0100011	-327.5556	0.0019915	0.0011987	1.061308	-16.80434	0.0054955	-0.9051808	0.007503	0.0242163	0.0004029	0.0003464	-0.0070571	0.0101097	-0.0002656	-4.237891E-005	0.0016186	0.0058231	0.0001557	-7.390977E-005	-0.0016527	0.0050871	-4.315377E-005	-7.277728E-005	0.0036895	0.0085413	0.0002699	0.0001733	-0.0078792	-0.0005149	-0.0003731	-0.00027	0.004663	0.0016494	0.0002849	-0.0001528	0.0079723	-0.0010404	0.0004649	-0.0002378	0.0048747	0.0016722	0.0002842	-0.0001129
	53	394	0.0501337	0.053946	-0.003488	1	0.0540586	-3.699484	0.0538715	-0.0034792	0.0539838	-3.69523	-0.0258565	3.525793	12	0.1848912	0.009995	-327.5556	0.001739	0.0009126	1.243591	-16.68817	0.0085592	-0.9046005	0.0065165	0.0187357	0.0003445	0.0001994	-0.0073528	0.0085805	-0.0002975	-3.761054E-005	-0.0042132	0.0111829	-0.0001459	0.0002419	0.0022727	0.001022	0.0001616	-0.0002515	0.0026135	0.0009837	0.0002067	-0.0001222	0.0007547	0.0085643	7.724762E-005	0.000242	0.0028729	0.0085587	0.0001864	0.0002898	0.0005549	0.0030081	4.005432E-005	1.561642E-005	0.0019104	0.0006814	9.441376E-005	-0.0001107
	54	476	0.0398258	0.0542831	-0.0040231	1	0.054432	-4.23866	0.0541975	-0.0040124	0.0543458	-4.234019	-0.0233083	3.525796	12	0.1838503	0.0100073	-327.5556	0.0014612	0.0008587	1.43931	-16.57787	0.0111821	-0.9056923	0.0045543	0.0181771	0.0002291	0.0001397	-0.0032768	0.0052961	-0.0001411	-0.0002963	0.0036266	0.0070284	0.0002556	2.3067E-005	-0.0027093	0.0091191	-8.797647E-005	0.0001591	0.0009472	0.0016428	9.298325E-005	-0.0001217	0.0027081	0.0025915	0.000164	-9.441377E-005	0.0002543	-0.0016063	5.483627E-005	-0.000264	-0.0012839	-0.0009619	-6.198884E-005	-0.0001924	0.0040847	-0.0029453	0.0002139	-0.0003282
	55	553	0.0316296	0.0546258	-0.0046683	1	0.0548249	-4.884573	0.0545407	-0.0046565	0.0547391	-4.879854	-0.0205262	3.525786	12	0.1823781	0.0099989	-327.5556	0.0013252	0.0005735	1.64938	-16.42438	0.0132244	-0.904897	0.0029934	0.0160519	0.0001874	-2.18153E-005	-0.0012839	0.0061123	2.217293E-005	-0.0001684	0.0007184	0.0049204	0.0000968	-0.0001031	-0.0008997	0.0050192	7.152557E-006	-3.910066E-005	-0.006724	0.0004896	-0.0003016	-0.0001636	-0.0021237	0.0071171	-7.104875E-005	0.0001636	0.0005819	0.0042034	6.67572E-005	3.516674E-005	-0.0012923	0.0005147	-4.291535E-005	-0.0001215	-2.480485E-005	0.0012543	2.0504E-005	-0.0001056
	56	681	0.0251206	0.0550054	-0.0054482	1	0.0552746	-5.656641	0.0549155	-0.0054321	0.0551835	-5.64915	-0.0178485	3.525789	12	0.1809607	0.0100025	-327.5556	0.0016796	0.0005848	1.887463	-16.26957	0.0150206	-0.9052006	0.0018812	0.0217289	0.0001535	0.0001453	0.0005262	0.0100834	0.000102	-2.467632E-005	0.0004153	0.0073309	0.0001047	4.10676E-005	-0.0037911	0.0044759	-0.0001693	-8.356572E-005	-0.0009236	0.005724	4.529953E-005	6.854534E-005	-0.0025651	0.0052357	-9.369851E-005	5.352497E-005	0.0010786	-0.0031805	8.630753E-005	-0.0003407	0.0017763	0.0028098	0.0001075	-1.704693E-005	-0.0005257	0.0007841	1.358986E-005	-0.0001494
	57	803	0.0199553	0.0555161	-0.006397	1	0.0558834	-6.573075	0.05543	-0.0063784	0.0557958	-6.564218	-0.0150259	3.525784	12	0.178908	0.009998	-327.5556	0.0013903	0.0004825	2.141289	-16.0507	0.016073	-0.904772	0.0017111	0.0172515	0.0002315	4.529953E-006	-0.0020406	0.0052145	-8.106233E-006	-0.0002258	-0.002688	0.0051121	-8.916856E-005	-6.973744E-005	-0.0006205	0.0093197	6.127357E-005	0.0001951	-0.0003721	0.0032449	6.246567E-005	-3.45707E-005	-0.0016479	0.0037468	-4.625321E-005	-1.370907E-005	-1.498591E-005	0.0037169	3.123283E-005	2.872944E-005	-0.0023833	0.0017048	-8.153916E-005	-6.103517E-005	0.0011809	0.0017583	8.893013E-005	-6.198884E-005
	58	1005	0.0158522	0.0561585	-0.0075261	1	0.0566606	-7.63304	0.056079	-0.0075048	0.0565789	-7.622375	-0.0119073	3.525781	12	0.176512	0.0100013	-327.5556	0.0014276	0.0004162	2.418034	-15.79199	0.0168402	-0.9050548	0.0012926	0.0169192	0.0002024	2.771616E-005	-0.0008462	0.0071427	6.151199E-005	-0.0001321	-0.0015824	0.0061656	-1.907349E-006	-1.144409E-005	-0.0022319	0.0059158	-3.337861E-005	5.048513E-005	-0.0002827	0.0057315	5.76973E-005	0.0001072	0.001705	0.0057246	0.0001497	0.0001068	0.0019401	0.0018586	0.0001409	-6.771089E-005	-0.0008104	0.0028304	-6.198884E-006	3.33786E-006	0.0001924	0.0039374	2.670288E-005	3.623962E-005
	59	1260	0.0125907	0.056985	-0.0088754	1	0.057672	-8.852715	0.0569144	-0.0088511	0.0575985	-8.839622	-0.0089163	3.525791	11	0.1702773	0.0098202	-327.5556	0.0013702	0.0004645	2.624424	-15.18665	0.0146861	-0.8887048	0.0025599	0.01664	0.0003307	6.052852E-005	-0.0031078	0.0081977	-2.765656E-005	-2.896786E-005	-0.0008827	0.0044263	2.264977E-005	-8.004905E-005	0.0006247	0.0048621	8.845329E-005	1.651049E-005	-0.0001773	0.0028454	2.241135E-005	-3.743173E-005	0.0005172	0.0028184	5.745888E-005	-4.231931E-005	-0.0012857	0.0004761	-4.100801E-005	-0.000134	-0.0018639	0.0013196	-7.963182E-005	-4.875661E-005	9.434484E-005	0.0042155	3.790855E-005	6.318092E-005
	60	1579	0.0100011	0.0580112	-0.0104271	1	0.0589409	-10.18966	0.0579305	-0.0103978	0.0588562	-10.17557	-0.0072063	3.525788	11	0.169783	0.0100072	-327.5556	0.0014531	0.0005544	2.973409	-15.0766	0.015223	-0.9056167	0.0022814	0.0172752	0.000397	3.069639E-006	-0.0020205	0.0094746	6.29425E-005	-7.390977E-006	-0.0001723	0.0057088	0.0001001	-3.844501E-005	-0.0019997	0.0026985	-7.987023E-005	-0.0001251	2.109446E-005	0.0048236	5.078316E-005	6.699562E-005	-0.0003766	0.0030133	6.914139E-006	-4.458428E-005	-0.0017272	0.0004961	-5.054475E-005	-0.0001483	0.0005942	0.0022799	6.747246E-005	-2.43187E-005	0.0022003	0.0033371	0.0001349	-6.675721E-006
